0.0,1.0,1.0,0.0,0.0,591.0
1.0,1.0,1.0,0.0,0.0,646.0
2.0,1.0,1.0,0.0,0.0,661.0
3.0,1.0,1.0,0.0,0.0,622.0
4.0,1.0,1.0,0.0,0.0,586.0
5.0,1.0,1.0,0.0,0.0,554.0
6.0,1.0,1.0,0.0,0.0,539.0
7.0,1.0,1.0,0.0,0.0,527.0
8.0,1.0,1.0,0.0,0.0,515.0
9.0,1.0,1.0,0.0,0.0,511.0
10.0,1.0,1.0,0.0,0.0,495.0
11.0,1.0,1.0,0.0,0.0,499.0
12.0,1.0,1.0,0.0,0.0,494.0
13.0,1.0,1.0,0.0,0.0,422.0
14.0,1.0,1.0,0.0,0.0,379.0
15.0,1.0,1.0,0.0,0.0,369.0
0.0,1.0,1.0,0.0,0.0,391.0
1.0,1.0,1.0,0.0,0.0,422.0
2.0,1.0,1.0,0.0,0.0,471.0
3.0,1.0,1.0,0.0,0.0,526.0
4.0,1.0,1.0,0.0,0.0,587.0
5.0,1.0,1.0,0.0,0.0,649.0
6.0,1.0,1.0,0.0,0.0,666.0
7.0,1.0,1.0,0.0,0.0,613.0
8.0,1.0,1.0,0.0,0.0,583.0
9.0,1.0,1.0,0.0,0.0,552.0
10.0,1.0,1.0,0.0,0.0,547.0
11.0,1.0,1.0,0.0,0.0,531.0
12.0,1.0,1.0,0.0,0.0,516.0
13.0,1.0,1.0,0.0,0.0,509.0
14.0,1.0,1.0,0.0,0.0,504.0
15.0,1.0,1.0,0.0,0.0,502.0
0.0,1.0,1.0,0.0,0.0,480.0
1.0,1.0,1.0,0.0,0.0,413.0
2.0,1.0,1.0,0.0,0.0,379.0
3.0,1.0,1.0,0.0,0.0,363.0
4.0,1.0,1.0,0.0,0.0,388.0
5.0,1.0,1.0,0.0,0.0,422.0
6.0,1.0,1.0,0.0,0.0,468.0
7.0,1.0,1.0,0.0,0.0,525.0
8.0,1.0,1.0,0.0,0.0,583.0
9.0,1.0,1.0,0.0,0.0,654.0
10.0,1.0,1.0,0.0,0.0,667.0
11.0,1.0,1.0,0.0,0.0,614.0
12.0,1.0,1.0,0.0,0.0,575.0
13.0,1.0,1.0,0.0,0.0,551.0
14.0,1.0,1.0,0.0,0.0,533.0
15.0,1.0,1.0,0.0,0.0,524.0
0.0,1.0,1.0,0.0,0.0,520.0
1.0,1.0,1.0,0.0,0.0,505.0
2.0,1.0,1.0,0.0,0.0,508.0
3.0,1.0,1.0,0.0,0.0,515.0
4.0,1.0,1.0,0.0,0.0,490.0
5.0,1.0,1.0,0.0,0.0,421.0
6.0,1.0,1.0,0.0,0.0,373.0
7.0,1.0,1.0,0.0,0.0,368.0
8.0,1.0,1.0,0.0,0.0,384.0
9.0,1.0,1.0,0.0,0.0,420.0
10.0,1.0,1.0,0.0,0.0,472.0
11.0,1.0,1.0,0.0,0.0,531.0
12.0,1.0,1.0,0.0,0.0,600.0
13.0,1.0,1.0,0.0,0.0,660.0
14.0,1.0,1.0,0.0,0.0,676.0
15.0,1.0,1.0,0.0,0.0,632.0
0.0,1.0,1.0,0.0,0.0,581.0
1.0,1.0,1.0,0.0,0.0,552.0
2.0,1.0,1.0,0.0,0.0,529.0
3.0,1.0,1.0,0.0,0.0,518.0
4.0,1.0,1.0,0.0,0.0,504.0
5.0,1.0,1.0,0.0,0.0,503.0
6.0,1.0,1.0,0.0,0.0,504.0
7.0,1.0,1.0,0.0,0.0,502.0
8.0,1.0,1.0,0.0,0.0,481.0
9.0,1.0,1.0,0.0,0.0,414.0
10.0,1.0,1.0,0.0,0.0,376.0
11.0,1.0,1.0,0.0,0.0,363.0
12.0,1.0,1.0,0.0,0.0,388.0
13.0,1.0,1.0,0.0,0.0,425.0
14.0,1.0,1.0,0.0,0.0,464.0
15.0,1.0,1.0,0.0,0.0,528.0
0.0,1.0,1.0,0.0,0.0,593.0
1.0,1.0,1.0,0.0,0.0,651.0
2.0,1.0,1.0,0.0,0.0,668.0
3.0,1.0,1.0,0.0,0.0,628.0
4.0,1.0,1.0,0.0,0.0,593.0
5.0,1.0,1.0,0.0,0.0,559.0
6.0,1.0,1.0,0.0,0.0,530.0
7.0,1.0,1.0,0.0,0.0,518.0
8.0,1.0,1.0,0.0,0.0,514.0
9.0,1.0,1.0,0.0,0.0,505.0
10.0,1.0,1.0,0.0,0.0,499.0
11.0,1.0,1.0,0.0,0.0,510.0
12.0,1.0,1.0,0.0,0.0,486.0
13.0,1.0,1.0,0.0,0.0,424.0
14.0,1.0,1.0,0.0,0.0,380.0
15.0,1.0,1.0,0.0,0.0,374.0
0.0,1.0,1.0,0.0,0.0,386.0
1.0,1.0,1.0,0.0,0.0,417.0
2.0,1.0,1.0,0.0,0.0,463.0
3.0,1.0,1.0,0.0,0.0,532.0
4.0,1.0,1.0,0.0,0.0,589.0
5.0,1.0,1.0,0.0,0.0,641.0
6.0,1.0,1.0,0.0,0.0,666.0
7.0,1.0,1.0,0.0,0.0,621.0
8.0,1.0,1.0,0.0,0.0,588.0
9.0,1.0,1.0,0.0,0.0,557.0
10.0,1.0,1.0,0.0,0.0,538.0
11.0,1.0,1.0,0.0,0.0,528.0
12.0,1.0,1.0,0.0,0.0,521.0
13.0,1.0,1.0,0.0,0.0,521.0
14.0,1.0,1.0,0.0,0.0,508.0
15.0,1.0,1.0,0.0,0.0,500.0
0.0,1.0,1.0,0.0,0.0,492.0
1.0,1.0,1.0,0.0,0.0,426.0
2.0,1.0,1.0,0.0,0.0,372.0
3.0,1.0,1.0,0.0,0.0,360.0
4.0,1.0,1.0,0.0,0.0,385.0
5.0,1.0,1.0,0.0,0.0,422.0
6.0,1.0,1.0,0.0,0.0,463.0
7.0,1.0,1.0,0.0,0.0,523.0
8.0,1.0,1.0,0.0,0.0,583.0
9.0,1.0,1.0,0.0,0.0,649.0
10.0,1.0,1.0,0.0,0.0,668.0
11.0,1.0,1.0,0.0,0.0,626.0
12.0,1.0,1.0,0.0,0.0,581.0
13.0,1.0,1.0,0.0,0.0,563.0
14.0,1.0,1.0,0.0,0.0,540.0
15.0,1.0,1.0,0.0,0.0,527.0
0.0,1.0,1.0,0.0,0.0,512.0
1.0,1.0,1.0,0.0,0.0,506.0
2.0,1.0,1.0,0.0,0.0,501.0
3.0,1.0,1.0,0.0,0.0,511.0
4.0,1.0,1.0,0.0,0.0,497.0
5.0,1.0,1.0,0.0,0.0,431.0
6.0,1.0,1.0,0.0,0.0,377.0
7.0,1.0,1.0,0.0,0.0,371.0
8.0,1.0,1.0,0.0,0.0,386.0
9.0,1.0,1.0,0.0,0.0,417.0
10.0,1.0,1.0,0.0,0.0,468.0
11.0,1.0,1.0,0.0,0.0,522.0
12.0,1.0,1.0,0.0,0.0,583.0
13.0,1.0,1.0,0.0,0.0,649.0
14.0,1.0,1.0,0.0,0.0,664.0
15.0,1.0,1.0,0.0,0.0,615.0
0.0,1.0,1.0,0.0,0.0,576.0
1.0,1.0,1.0,0.0,0.0,560.0
2.0,1.0,1.0,0.0,0.0,544.0
3.0,1.0,1.0,0.0,0.0,527.0
4.0,1.0,1.0,0.0,0.0,515.0
5.0,1.0,1.0,0.0,0.0,504.0
6.0,1.0,1.0,0.0,0.0,490.0
7.0,1.0,1.0,0.0,0.0,509.0
8.0,1.0,1.0,0.0,0.0,492.0
9.0,1.0,1.0,0.0,0.0,425.0
10.0,1.0,1.0,0.0,0.0,377.0
11.0,1.0,1.0,0.0,0.0,361.0
12.0,1.0,1.0,0.0,0.0,387.0
13.0,1.0,1.0,0.0,0.0,422.0
14.0,1.0,1.0,0.0,0.0,467.0
15.0,1.0,1.0,0.0,0.0,529.0
0.0,1.0,1.0,0.0,0.0,594.0
1.0,1.0,1.0,0.0,0.0,659.0
2.0,1.0,1.0,0.0,0.0,672.0
3.0,1.0,1.0,0.0,0.0,621.0
4.0,1.0,1.0,0.0,0.0,573.0
5.0,1.0,1.0,0.0,0.0,548.0
6.0,1.0,1.0,0.0,0.0,527.0
7.0,1.0,1.0,0.0,0.0,523.0
8.0,1.0,1.0,0.0,0.0,520.0
9.0,1.0,1.0,0.0,0.0,513.0
10.0,1.0,1.0,0.0,0.0,506.0
11.0,1.0,1.0,0.0,0.0,508.0
12.0,1.0,1.0,0.0,0.0,495.0
13.0,1.0,1.0,0.0,0.0,423.0
14.0,1.0,1.0,0.0,0.0,370.0
15.0,1.0,1.0,0.0,0.0,366.0
0.0,1.0,1.0,0.0,0.0,382.0
1.0,1.0,1.0,0.0,0.0,420.0
2.0,1.0,1.0,0.0,0.0,461.0
3.0,1.0,1.0,0.0,0.0,516.0
4.0,1.0,1.0,0.0,0.0,581.0
5.0,1.0,1.0,0.0,0.0,652.0
6.0,1.0,1.0,0.0,0.0,677.0
7.0,1.0,1.0,0.0,0.0,626.0
8.0,1.0,1.0,0.0,0.0,583.0
9.0,1.0,1.0,0.0,0.0,554.0
10.0,1.0,1.0,0.0,0.0,537.0
11.0,1.0,1.0,0.0,0.0,533.0
12.0,1.0,1.0,0.0,0.0,516.0
13.0,1.0,1.0,0.0,0.0,509.0
14.0,1.0,1.0,0.0,0.0,499.0
15.0,1.0,1.0,0.0,0.0,508.0
0.0,1.0,1.0,0.0,0.0,487.0
1.0,1.0,1.0,0.0,0.0,425.0
2.0,1.0,1.0,0.0,0.0,376.0
3.0,1.0,1.0,0.0,0.0,367.0
4.0,1.0,1.0,0.0,0.0,390.0
5.0,1.0,1.0,0.0,0.0,427.0
6.0,1.0,1.0,0.0,0.0,473.0
7.0,1.0,1.0,0.0,0.0,524.0
8.0,1.0,1.0,0.0,0.0,577.0
9.0,1.0,1.0,0.0,0.0,643.0
10.0,1.0,1.0,0.0,0.0,672.0
11.0,1.0,1.0,0.0,0.0,623.0
12.0,1.0,1.0,0.0,0.0,575.0
13.0,1.0,1.0,0.0,0.0,543.0
14.0,1.0,1.0,0.0,0.0,528.0
15.0,1.0,1.0,0.0,0.0,522.0
0.0,1.0,1.0,0.0,0.0,512.0
1.0,1.0,1.0,0.0,0.0,511.0
2.0,1.0,1.0,0.0,0.0,508.0
3.0,1.0,1.0,0.0,0.0,508.0
4.0,1.0,1.0,0.0,0.0,489.0
5.0,1.0,1.0,0.0,0.0,414.0
6.0,1.0,1.0,0.0,0.0,367.0
7.0,1.0,1.0,0.0,0.0,362.0
8.0,1.0,1.0,0.0,0.0,382.0
9.0,1.0,1.0,0.0,0.0,421.0
10.0,1.0,1.0,0.0,0.0,460.0
11.0,1.0,1.0,0.0,0.0,519.0
12.0,1.0,1.0,0.0,0.0,578.0
13.0,1.0,1.0,0.0,0.0,632.0
14.0,1.0,1.0,0.0,0.0,643.0
15.0,1.0,1.0,0.0,0.0,607.0
0.0,1.0,1.0,0.0,0.0,568.0
1.0,1.0,1.0,0.0,0.0,547.0
2.0,1.0,1.0,0.0,0.0,532.0
3.0,1.0,1.0,0.0,0.0,511.0
4.0,1.0,1.0,0.0,0.0,501.0
5.0,1.0,1.0,0.0,0.0,498.0
6.0,1.0,1.0,0.0,0.0,501.0
7.0,1.0,1.0,0.0,0.0,507.0
8.0,1.0,1.0,0.0,0.0,481.0
9.0,1.0,1.0,0.0,0.0,401.0
10.0,1.0,1.0,0.0,0.0,360.0
11.0,1.0,1.0,0.0,0.0,354.0
12.0,1.0,1.0,0.0,0.0,380.0
13.0,1.0,1.0,0.0,0.0,412.0
14.0,1.0,1.0,0.0,0.0,463.0
15.0,1.0,1.0,0.0,0.0,523.0
0.0,1.0,1.0,0.0,0.0,585.0
1.0,1.0,1.0,0.0,0.0,650.0
2.0,1.0,1.0,0.0,0.0,671.0
3.0,1.0,1.0,0.0,0.0,621.0
4.0,1.0,1.0,0.0,0.0,589.0
5.0,1.0,1.0,0.0,0.0,556.0
6.0,1.0,1.0,0.0,0.0,532.0
7.0,1.0,1.0,0.0,0.0,519.0
8.0,1.0,1.0,0.0,0.0,513.0
9.0,1.0,1.0,0.0,0.0,509.0
10.0,1.0,1.0,0.0,0.0,499.0
11.0,1.0,1.0,0.0,0.0,507.0
12.0,1.0,1.0,0.0,0.0,491.0
13.0,1.0,1.0,0.0,0.0,428.0
14.0,1.0,1.0,0.0,0.0,384.0
15.0,1.0,1.0,0.0,0.0,370.0
0.0,1.0,1.0,0.0,0.0,391.0
1.0,1.0,1.0,0.0,0.0,428.0
2.0,1.0,1.0,0.0,0.0,471.0
3.0,1.0,1.0,0.0,0.0,533.0
4.0,1.0,1.0,0.0,0.0,586.0
5.0,1.0,1.0,0.0,0.0,649.0
6.0,1.0,1.0,0.0,0.0,674.0
7.0,1.0,1.0,0.0,0.0,629.0
8.0,1.0,1.0,0.0,0.0,592.0
9.0,1.0,1.0,0.0,0.0,562.0
10.0,1.0,1.0,0.0,0.0,544.0
11.0,1.0,1.0,0.0,0.0,537.0
12.0,1.0,1.0,0.0,0.0,523.0
13.0,1.0,1.0,0.0,0.0,512.0
14.0,1.0,1.0,0.0,0.0,509.0
15.0,1.0,1.0,0.0,0.0,511.0
0.0,1.0,1.0,0.0,0.0,500.0
1.0,1.0,1.0,0.0,0.0,416.0
2.0,1.0,1.0,0.0,0.0,363.0
3.0,1.0,1.0,0.0,0.0,356.0
4.0,1.0,1.0,0.0,0.0,385.0
5.0,1.0,1.0,0.0,0.0,424.0
6.0,1.0,1.0,0.0,0.0,471.0
7.0,1.0,1.0,0.0,0.0,526.0
8.0,1.0,1.0,0.0,0.0,591.0
9.0,1.0,1.0,0.0,0.0,661.0
10.0,1.0,1.0,0.0,0.0,676.0
11.0,1.0,1.0,0.0,0.0,636.0
12.0,1.0,1.0,0.0,0.0,595.0
13.0,1.0,1.0,0.0,0.0,550.0
14.0,1.0,1.0,0.0,0.0,532.0
15.0,1.0,1.0,0.0,0.0,521.0
0.0,1.0,1.0,0.0,0.0,507.0
1.0,1.0,1.0,0.0,0.0,500.0
2.0,1.0,1.0,0.0,0.0,506.0
3.0,1.0,1.0,0.0,0.0,517.0
4.0,1.0,1.0,0.0,0.0,508.0
5.0,1.0,1.0,0.0,0.0,441.0
6.0,1.0,1.0,0.0,0.0,387.0
7.0,1.0,1.0,0.0,0.0,370.0
8.0,1.0,1.0,0.0,0.0,392.0
9.0,1.0,1.0,0.0,0.0,425.0
10.0,1.0,1.0,0.0,0.0,472.0
11.0,1.0,1.0,0.0,0.0,523.0
12.0,1.0,1.0,0.0,0.0,583.0
13.0,1.0,1.0,0.0,0.0,646.0
14.0,1.0,1.0,0.0,0.0,672.0
15.0,1.0,1.0,0.0,0.0,629.0
0.0,1.0,1.0,0.0,0.0,585.0
1.0,1.0,1.0,0.0,0.0,564.0
2.0,1.0,1.0,0.0,0.0,553.0
3.0,1.0,1.0,0.0,0.0,529.0
4.0,1.0,1.0,0.0,0.0,522.0
5.0,1.0,1.0,0.0,0.0,519.0
6.0,1.0,1.0,0.0,0.0,506.0
7.0,1.0,1.0,0.0,0.0,500.0
8.0,1.0,1.0,0.0,0.0,497.0
9.0,1.0,1.0,0.0,0.0,422.0
10.0,1.0,1.0,0.0,0.0,371.0
11.0,1.0,1.0,0.0,0.0,361.0
12.0,1.0,1.0,0.0,0.0,391.0
13.0,1.0,1.0,0.0,0.0,422.0
14.0,1.0,1.0,0.0,0.0,461.0
15.0,1.0,1.0,0.0,0.0,516.0
0.0,1.0,1.0,0.0,0.0,580.0
1.0,1.0,1.0,0.0,0.0,647.0
2.0,1.0,1.0,0.0,0.0,675.0
3.0,1.0,1.0,0.0,0.0,636.0
4.0,1.0,1.0,0.0,0.0,588.0
5.0,1.0,1.0,0.0,0.0,556.0
6.0,1.0,1.0,0.0,0.0,546.0
7.0,1.0,1.0,0.0,0.0,531.0
8.0,1.0,1.0,0.0,0.0,504.0
9.0,1.0,1.0,0.0,0.0,486.0
10.0,1.0,1.0,0.0,0.0,487.0
11.0,1.0,1.0,0.0,0.0,497.0
12.0,1.0,1.0,0.0,0.0,491.0
13.0,1.0,1.0,0.0,0.0,423.0
14.0,1.0,1.0,0.0,0.0,377.0
15.0,1.0,1.0,0.0,0.0,375.0
0.0,1.0,1.0,0.0,0.0,403.0
1.0,1.0,1.0,0.0,0.0,446.0
2.0,1.0,1.0,0.0,0.0,487.0
3.0,1.0,1.0,0.0,0.0,542.0
4.0,1.0,1.0,0.0,0.0,595.0
5.0,1.0,1.0,0.0,0.0,660.0
6.0,1.0,1.0,0.0,0.0,686.0
7.0,1.0,1.0,0.0,0.0,633.0
8.0,1.0,1.0,0.0,0.0,579.0
9.0,1.0,1.0,0.0,0.0,550.0
10.0,1.0,1.0,0.0,0.0,536.0
11.0,1.0,1.0,0.0,0.0,524.0
12.0,1.0,1.0,0.0,0.0,508.0
13.0,1.0,1.0,0.0,0.0,496.0
14.0,1.0,1.0,0.0,0.0,499.0
15.0,1.0,1.0,0.0,0.0,507.0
0.0,1.0,1.0,0.0,0.0,487.0
1.0,1.0,1.0,0.0,0.0,414.0
2.0,1.0,1.0,0.0,0.0,379.0
3.0,1.0,1.0,0.0,0.0,364.0
4.0,1.0,1.0,0.0,0.0,383.0
5.0,1.0,1.0,0.0,0.0,421.0
6.0,1.0,1.0,0.0,0.0,469.0
7.0,1.0,1.0,0.0,0.0,521.0
8.0,1.0,1.0,0.0,0.0,581.0
9.0,1.0,1.0,0.0,0.0,656.0
10.0,1.0,1.0,0.0,0.0,675.0
11.0,1.0,1.0,0.0,0.0,625.0
12.0,1.0,1.0,0.0,0.0,585.0
13.0,1.0,1.0,0.0,0.0,559.0
14.0,1.0,1.0,0.0,0.0,546.0
15.0,1.0,1.0,0.0,0.0,520.0
0.0,1.0,1.0,0.0,0.0,512.0
1.0,1.0,1.0,0.0,0.0,506.0
2.0,1.0,1.0,0.0,0.0,504.0
3.0,1.0,1.0,0.0,0.0,512.0
4.0,1.0,1.0,0.0,0.0,506.0
5.0,1.0,1.0,0.0,0.0,427.0
6.0,1.0,1.0,0.0,0.0,378.0
7.0,1.0,1.0,0.0,0.0,356.0
8.0,1.0,1.0,0.0,0.0,381.0
9.0,1.0,1.0,0.0,0.0,420.0
10.0,1.0,1.0,0.0,0.0,472.0
11.0,1.0,1.0,0.0,0.0,522.0
12.0,1.0,1.0,0.0,0.0,575.0
13.0,1.0,1.0,0.0,0.0,650.0
14.0,1.0,1.0,0.0,0.0,677.0
15.0,1.0,1.0,0.0,0.0,626.0
0.0,1.0,1.0,0.0,0.0,581.0
1.0,1.0,1.0,0.0,0.0,563.0
2.0,1.0,1.0,0.0,0.0,547.0
3.0,1.0,1.0,0.0,0.0,526.0
4.0,1.0,1.0,0.0,0.0,510.0
5.0,1.0,1.0,0.0,0.0,499.0
6.0,1.0,1.0,0.0,0.0,497.0
7.0,1.0,1.0,0.0,0.0,512.0
8.0,1.0,1.0,0.0,0.0,503.0
9.0,1.0,1.0,0.0,0.0,425.0
10.0,1.0,1.0,0.0,0.0,369.0
11.0,1.0,1.0,0.0,0.0,365.0
12.0,1.0,1.0,0.0,0.0,385.0
13.0,1.0,1.0,0.0,0.0,425.0
14.0,1.0,1.0,0.0,0.0,473.0
15.0,1.0,1.0,0.0,0.0,529.0
0.0,1.0,1.0,0.0,0.0,584.0
1.0,1.0,1.0,0.0,0.0,650.0
2.0,1.0,1.0,0.0,0.0,684.0
3.0,1.0,1.0,0.0,0.0,631.0
4.0,1.0,1.0,0.0,0.0,587.0
5.0,1.0,1.0,0.0,0.0,554.0
6.0,1.0,1.0,0.0,0.0,540.0
7.0,1.0,1.0,0.0,0.0,532.0
8.0,1.0,1.0,0.0,0.0,517.0
9.0,1.0,1.0,0.0,0.0,505.0
10.0,1.0,1.0,0.0,0.0,496.0
11.0,1.0,1.0,0.0,0.0,512.0
12.0,1.0,1.0,0.0,0.0,502.0
13.0,1.0,1.0,0.0,0.0,423.0
14.0,1.0,1.0,0.0,0.0,370.0
15.0,1.0,1.0,0.0,0.0,357.0
0.0,1.0,1.0,0.0,0.0,384.0
1.0,1.0,1.0,0.0,0.0,429.0
2.0,1.0,1.0,0.0,0.0,476.0
3.0,1.0,1.0,0.0,0.0,529.0
4.0,1.0,1.0,0.0,0.0,590.0
5.0,1.0,1.0,0.0,0.0,661.0
6.0,1.0,1.0,0.0,0.0,681.0
7.0,1.0,1.0,0.0,0.0,633.0
8.0,1.0,1.0,0.0,0.0,583.0
9.0,1.0,1.0,0.0,0.0,551.0
10.0,1.0,1.0,0.0,0.0,537.0
11.0,1.0,1.0,0.0,0.0,523.0
12.0,1.0,1.0,0.0,0.0,514.0
13.0,1.0,1.0,0.0,0.0,510.0
14.0,1.0,1.0,0.0,0.0,503.0
15.0,1.0,1.0,0.0,0.0,512.0
0.0,1.0,1.0,0.0,0.0,496.0
1.0,1.0,1.0,0.0,0.0,416.0
2.0,1.0,1.0,0.0,0.0,362.0
3.0,1.0,1.0,0.0,0.0,353.0
4.0,1.0,1.0,0.0,0.0,383.0
5.0,1.0,1.0,0.0,0.0,424.0
6.0,1.0,1.0,0.0,0.0,464.0
7.0,1.0,1.0,0.0,0.0,522.0
8.0,1.0,1.0,0.0,0.0,584.0
9.0,1.0,1.0,0.0,0.0,654.0
10.0,1.0,1.0,0.0,0.0,676.0
11.0,1.0,1.0,0.0,0.0,634.0
12.0,1.0,1.0,0.0,0.0,589.0
13.0,1.0,1.0,0.0,0.0,549.0
14.0,1.0,1.0,0.0,0.0,535.0
15.0,1.0,1.0,0.0,0.0,520.0
0.0,1.0,1.0,0.0,0.0,512.0
1.0,1.0,1.0,0.0,0.0,507.0
2.0,1.0,1.0,0.0,0.0,496.0
3.0,1.0,1.0,0.0,0.0,509.0
4.0,1.0,1.0,0.0,0.0,496.0
5.0,1.0,1.0,0.0,0.0,425.0
6.0,1.0,1.0,0.0,0.0,375.0
7.0,1.0,1.0,0.0,0.0,358.0
8.0,1.0,1.0,0.0,0.0,381.0
9.0,1.0,1.0,0.0,0.0,420.0
10.0,1.0,1.0,0.0,0.0,458.0
11.0,1.0,1.0,0.0,0.0,515.0
12.0,1.0,1.0,0.0,0.0,579.0
13.0,1.0,1.0,0.0,0.0,645.0
14.0,1.0,1.0,0.0,0.0,680.0
15.0,1.0,1.0,0.0,0.0,632.0
0.0,1.0,1.0,0.0,0.0,590.0
1.0,1.0,1.0,0.0,0.0,552.0
2.0,1.0,1.0,0.0,0.0,536.0
3.0,1.0,1.0,0.0,0.0,528.0
4.0,1.0,1.0,0.0,0.0,516.0
5.0,1.0,1.0,0.0,0.0,511.0
6.0,1.0,1.0,0.0,0.0,499.0
7.0,1.0,1.0,0.0,0.0,511.0
8.0,1.0,1.0,0.0,0.0,499.0
9.0,1.0,1.0,0.0,0.0,423.0
10.0,1.0,1.0,0.0,0.0,372.0
11.0,1.0,1.0,0.0,0.0,353.0
12.0,1.0,1.0,0.0,0.0,376.0
13.0,1.0,1.0,0.0,0.0,413.0
14.0,1.0,1.0,0.0,0.0,460.0
15.0,1.0,1.0,0.0,0.0,522.0
0.0,1.0,1.0,0.0,0.0,587.0
1.0,1.0,1.0,0.0,0.0,658.0
2.0,1.0,1.0,0.0,0.0,679.0
3.0,1.0,1.0,0.0,0.0,635.0
4.0,1.0,1.0,0.0,0.0,588.0
5.0,1.0,1.0,0.0,0.0,564.0
6.0,1.0,1.0,0.0,0.0,555.0
7.0,1.0,1.0,0.0,0.0,542.0
8.0,1.0,1.0,0.0,0.0,523.0
9.0,1.0,1.0,0.0,0.0,511.0
10.0,1.0,1.0,0.0,0.0,501.0
11.0,1.0,1.0,0.0,0.0,508.0
12.0,1.0,1.0,0.0,0.0,486.0
13.0,1.0,1.0,0.0,0.0,411.0
14.0,1.0,1.0,0.0,0.0,370.0
15.0,1.0,1.0,0.0,0.0,367.0
0.0,1.0,1.0,0.0,0.0,396.0
1.0,1.0,1.0,0.0,0.0,428.0
2.0,1.0,1.0,0.0,0.0,477.0
3.0,1.0,1.0,0.0,0.0,530.0
4.0,1.0,1.0,0.0,0.0,583.0
5.0,1.0,1.0,0.0,0.0,645.0
6.0,1.0,1.0,0.0,0.0,673.0
7.0,1.0,1.0,0.0,0.0,632.0
8.0,1.0,1.0,0.0,0.0,585.0
9.0,1.0,1.0,0.0,0.0,551.0
10.0,1.0,1.0,0.0,0.0,539.0
11.0,1.0,1.0,0.0,0.0,527.0
12.0,1.0,1.0,0.0,0.0,512.0
13.0,1.0,1.0,0.0,0.0,494.0
14.0,1.0,1.0,0.0,0.0,500.0
15.0,1.0,1.0,0.0,0.0,517.0
0.0,1.0,1.0,0.0,0.0,502.0
1.0,1.0,1.0,0.0,0.0,435.0
2.0,1.0,1.0,0.0,0.0,369.0
3.0,1.0,1.0,0.0,0.0,352.0
4.0,1.0,1.0,0.0,0.0,380.0
5.0,1.0,1.0,0.0,0.0,423.0
6.0,1.0,1.0,0.0,0.0,463.0
7.0,1.0,1.0,0.0,0.0,520.0
8.0,1.0,1.0,0.0,0.0,578.0
9.0,1.0,1.0,0.0,0.0,649.0
10.0,1.0,1.0,0.0,0.0,682.0
11.0,1.0,1.0,0.0,0.0,623.0
12.0,1.0,1.0,0.0,0.0,578.0
13.0,1.0,1.0,0.0,0.0,548.0
14.0,1.0,1.0,0.0,0.0,527.0
15.0,1.0,1.0,0.0,0.0,517.0
0.0,1.0,1.0,0.0,0.0,508.0
1.0,1.0,1.0,0.0,0.0,498.0
2.0,1.0,1.0,0.0,0.0,488.0
3.0,1.0,1.0,0.0,0.0,504.0
4.0,1.0,1.0,0.0,0.0,505.0
5.0,1.0,1.0,0.0,0.0,436.0
6.0,1.0,1.0,0.0,0.0,381.0
7.0,1.0,1.0,0.0,0.0,364.0
8.0,1.0,1.0,0.0,0.0,391.0
9.0,1.0,1.0,0.0,0.0,427.0
10.0,1.0,1.0,0.0,0.0,473.0
11.0,1.0,1.0,0.0,0.0,528.0
12.0,1.0,1.0,0.0,0.0,591.0
13.0,1.0,1.0,0.0,0.0,661.0
14.0,1.0,1.0,0.0,0.0,681.0
15.0,1.0,1.0,0.0,0.0,630.0
0.0,1.0,1.0,0.0,0.0,592.0
1.0,1.0,1.0,0.0,0.0,556.0
2.0,1.0,1.0,0.0,0.0,524.0
3.0,1.0,1.0,0.0,0.0,508.0
4.0,1.0,1.0,0.0,0.0,497.0
5.0,1.0,1.0,0.0,0.0,488.0
6.0,1.0,1.0,0.0,0.0,489.0
7.0,1.0,1.0,0.0,0.0,497.0
8.0,1.0,1.0,0.0,0.0,485.0
9.0,1.0,1.0,0.0,0.0,420.0
10.0,1.0,1.0,0.0,0.0,369.0
11.0,1.0,1.0,0.0,0.0,357.0
12.0,1.0,1.0,0.0,0.0,389.0
13.0,1.0,1.0,0.0,0.0,429.0
14.0,1.0,1.0,0.0,0.0,484.0
15.0,1.0,1.0,0.0,0.0,556.0
0.0,1.0,1.0,0.0,0.0,610.0
1.0,1.0,1.0,0.0,0.0,650.0
2.0,1.0,1.0,0.0,0.0,666.0
3.0,1.0,1.0,0.0,0.0,614.0
4.0,1.0,1.0,0.0,0.0,575.0
5.0,1.0,1.0,0.0,0.0,557.0
6.0,1.0,1.0,0.0,0.0,535.0
7.0,1.0,1.0,0.0,0.0,526.0
8.0,1.0,1.0,0.0,0.0,519.0
9.0,1.0,1.0,0.0,0.0,517.0
10.0,1.0,1.0,0.0,0.0,513.0
11.0,1.0,1.0,0.0,0.0,508.0
12.0,1.0,1.0,0.0,0.0,483.0
13.0,1.0,1.0,0.0,0.0,419.0
14.0,1.0,1.0,0.0,0.0,370.0
15.0,1.0,1.0,0.0,0.0,353.0
0.0,1.0,1.0,0.0,0.0,372.0
1.0,1.0,1.0,0.0,0.0,411.0
2.0,1.0,1.0,0.0,0.0,467.0
3.0,1.0,1.0,0.0,0.0,518.0
4.0,1.0,1.0,0.0,0.0,571.0
5.0,1.0,1.0,0.0,0.0,639.0
6.0,1.0,1.0,0.0,0.0,672.0
7.0,1.0,1.0,0.0,0.0,627.0
8.0,1.0,1.0,0.0,0.0,588.0
9.0,1.0,1.0,0.0,0.0,555.0
10.0,1.0,1.0,0.0,0.0,531.0
11.0,1.0,1.0,0.0,0.0,523.0
12.0,1.0,1.0,0.0,0.0,510.0
13.0,1.0,1.0,0.0,0.0,497.0
14.0,1.0,1.0,0.0,0.0,499.0
15.0,1.0,1.0,0.0,0.0,505.0
0.0,1.0,1.0,0.0,0.0,499.0
1.0,1.0,1.0,0.0,0.0,426.0
2.0,1.0,1.0,0.0,0.0,371.0
3.0,1.0,1.0,0.0,0.0,350.0
4.0,1.0,1.0,0.0,0.0,374.0
5.0,1.0,1.0,0.0,0.0,416.0
6.0,1.0,1.0,0.0,0.0,463.0
7.0,1.0,1.0,0.0,0.0,525.0
8.0,1.0,1.0,0.0,0.0,580.0
9.0,1.0,1.0,0.0,0.0,644.0
10.0,1.0,1.0,0.0,0.0,667.0
11.0,1.0,1.0,0.0,0.0,633.0
12.0,1.0,1.0,0.0,0.0,593.0
13.0,1.0,1.0,0.0,0.0,574.0
14.0,1.0,1.0,0.0,0.0,546.0
15.0,1.0,1.0,0.0,0.0,534.0
0.0,1.0,1.0,0.0,0.0,520.0
1.0,1.0,1.0,0.0,0.0,508.0
2.0,1.0,1.0,0.0,0.0,504.0
3.0,1.0,1.0,0.0,0.0,508.0
4.0,1.0,1.0,0.0,0.0,486.0
5.0,1.0,1.0,0.0,0.0,420.0
6.0,1.0,1.0,0.0,0.0,382.0
7.0,1.0,1.0,0.0,0.0,357.0
8.0,1.0,1.0,0.0,0.0,385.0
9.0,1.0,1.0,0.0,0.0,417.0
10.0,1.0,1.0,0.0,0.0,467.0
11.0,1.0,1.0,0.0,0.0,516.0
12.0,1.0,1.0,0.0,0.0,576.0
13.0,1.0,1.0,0.0,0.0,654.0
14.0,1.0,1.0,0.0,0.0,679.0
15.0,1.0,1.0,0.0,0.0,632.0
0.0,1.0,1.0,0.0,0.0,578.0
1.0,1.0,1.0,0.0,0.0,557.0
2.0,1.0,1.0,0.0,0.0,548.0
3.0,1.0,1.0,0.0,0.0,532.0
4.0,1.0,1.0,0.0,0.0,518.0
5.0,1.0,1.0,0.0,0.0,512.0
6.0,1.0,1.0,0.0,0.0,503.0
7.0,1.0,1.0,0.0,0.0,508.0
8.0,1.0,1.0,0.0,0.0,494.0
9.0,1.0,1.0,0.0,0.0,432.0
10.0,1.0,1.0,0.0,0.0,373.0
11.0,1.0,1.0,0.0,0.0,366.0
12.0,1.0,1.0,0.0,0.0,387.0
13.0,1.0,1.0,0.0,0.0,417.0
14.0,1.0,1.0,0.0,0.0,452.0
15.0,1.0,1.0,0.0,0.0,514.0
0.0,1.0,1.0,0.0,0.0,584.0
1.0,1.0,1.0,0.0,0.0,646.0
2.0,1.0,1.0,0.0,0.0,659.0
3.0,1.0,1.0,0.0,0.0,615.0
4.0,1.0,1.0,0.0,0.0,590.0
5.0,1.0,1.0,0.0,0.0,559.0
6.0,1.0,1.0,0.0,0.0,537.0
7.0,1.0,1.0,0.0,0.0,534.0
8.0,1.0,1.0,0.0,0.0,531.0
9.0,1.0,1.0,0.0,0.0,517.0
10.0,1.0,1.0,0.0,0.0,513.0
11.0,1.0,1.0,0.0,0.0,511.0
12.0,1.0,1.0,0.0,0.0,496.0
13.0,1.0,1.0,0.0,0.0,425.0
14.0,1.0,1.0,0.0,0.0,379.0
15.0,1.0,1.0,0.0,0.0,369.0
0.0,1.0,1.0,0.0,0.0,389.0
1.0,1.0,1.0,0.0,0.0,418.0
2.0,1.0,1.0,0.0,0.0,466.0
3.0,1.0,1.0,0.0,0.0,530.0
4.0,1.0,1.0,0.0,0.0,601.0
5.0,1.0,1.0,0.0,0.0,648.0
6.0,1.0,1.0,0.0,0.0,672.0
7.0,1.0,1.0,0.0,0.0,624.0
8.0,1.0,1.0,0.0,0.0,580.0
9.0,1.0,1.0,0.0,0.0,556.0
10.0,1.0,1.0,0.0,0.0,536.0
11.0,1.0,1.0,0.0,0.0,530.0
12.0,1.0,1.0,0.0,0.0,519.0
13.0,1.0,1.0,0.0,0.0,508.0
14.0,1.0,1.0,0.0,0.0,503.0
15.0,1.0,1.0,0.0,0.0,498.0
0.0,1.0,1.0,0.0,0.0,477.0
1.0,1.0,1.0,0.0,0.0,417.0
2.0,1.0,1.0,0.0,0.0,385.0
3.0,1.0,1.0,0.0,0.0,383.0
4.0,1.0,1.0,0.0,0.0,383.0
5.0,1.0,1.0,0.0,0.0,408.0
6.0,1.0,1.0,0.0,0.0,454.0
7.0,1.0,1.0,0.0,0.0,526.0
8.0,1.0,1.0,0.0,0.0,593.0
9.0,1.0,1.0,0.0,0.0,660.0
10.0,1.0,1.0,0.0,0.0,693.0
11.0,1.0,1.0,0.0,0.0,638.0
12.0,1.0,1.0,0.0,0.0,587.0
13.0,1.0,1.0,0.0,0.0,552.0
14.0,1.0,1.0,0.0,0.0,536.0
15.0,1.0,1.0,0.0,0.0,522.0
0.0,1.0,1.0,0.0,0.0,517.0
1.0,1.0,1.0,0.0,0.0,506.0
2.0,1.0,1.0,0.0,0.0,485.0
3.0,1.0,1.0,0.0,0.0,481.0
4.0,1.0,1.0,0.0,0.0,475.0
5.0,1.0,1.0,0.0,0.0,426.0
6.0,1.0,1.0,0.0,0.0,373.0
7.0,1.0,1.0,0.0,0.0,352.0
8.0,1.0,1.0,0.0,0.0,373.0
9.0,1.0,1.0,0.0,0.0,412.0
10.0,1.0,1.0,0.0,0.0,460.0
11.0,1.0,1.0,0.0,0.0,514.0
12.0,1.0,1.0,0.0,0.0,564.0
13.0,1.0,1.0,0.0,0.0,624.0
14.0,1.0,1.0,0.0,0.0,653.0
15.0,1.0,1.0,0.0,0.0,634.0
0.0,1.0,1.0,0.0,0.0,596.0
1.0,1.0,1.0,0.0,0.0,569.0
2.0,1.0,1.0,0.0,0.0,532.0
3.0,1.0,1.0,0.0,0.0,490.0
4.0,1.0,1.0,0.0,0.0,483.0
5.0,1.0,1.0,0.0,0.0,484.0
6.0,1.0,1.0,0.0,0.0,476.0
7.0,1.0,1.0,0.0,0.0,487.0
8.0,1.0,1.0,0.0,0.0,501.0
9.0,1.0,1.0,0.0,0.0,457.0
10.0,1.0,1.0,0.0,0.0,410.0
11.0,1.0,1.0,0.0,0.0,393.0
12.0,1.0,1.0,0.0,0.0,400.0
13.0,1.0,1.0,0.0,0.0,424.0
14.0,1.0,1.0,0.0,0.0,463.0
15.0,1.0,1.0,0.0,0.0,525.0
0.0,1.0,1.0,0.0,0.0,594.0
1.0,1.0,1.0,0.0,0.0,659.0
2.0,1.0,1.0,0.0,0.0,676.0
3.0,1.0,1.0,0.0,0.0,610.0
4.0,1.0,1.0,0.0,0.0,563.0
5.0,1.0,1.0,0.0,0.0,530.0
6.0,1.0,1.0,0.0,0.0,515.0
7.0,1.0,1.0,0.0,0.0,508.0
8.0,1.0,1.0,0.0,0.0,492.0
9.0,1.0,1.0,0.0,0.0,490.0
10.0,1.0,1.0,0.0,0.0,505.0
11.0,1.0,1.0,0.0,0.0,531.0
12.0,1.0,1.0,0.0,0.0,522.0
13.0,1.0,1.0,0.0,0.0,441.0
14.0,1.0,1.0,0.0,0.0,375.0
15.0,1.0,1.0,0.0,0.0,352.0
0.0,1.0,1.0,0.0,0.0,374.0
1.0,1.0,1.0,0.0,0.0,414.0
2.0,1.0,1.0,0.0,0.0,462.0
3.0,1.0,1.0,0.0,0.0,521.0
4.0,1.0,1.0,0.0,0.0,582.0
5.0,1.0,1.0,0.0,0.0,641.0
6.0,1.0,1.0,0.0,0.0,653.0
7.0,1.0,1.0,0.0,0.0,605.0
8.0,1.0,1.0,0.0,0.0,578.0
9.0,1.0,1.0,0.0,0.0,567.0
10.0,1.0,1.0,0.0,0.0,556.0
11.0,1.0,1.0,0.0,0.0,523.0
12.0,1.0,1.0,0.0,0.0,519.0
13.0,1.0,1.0,0.0,0.0,521.0
14.0,1.0,1.0,0.0,0.0,505.0
15.0,1.0,1.0,0.0,0.0,508.0
0.0,1.0,1.0,0.0,0.0,508.0
1.0,1.0,1.0,0.0,0.0,436.0
2.0,1.0,1.0,0.0,0.0,391.0
3.0,1.0,1.0,0.0,0.0,397.0
4.0,1.0,1.0,0.0,0.0,426.0
5.0,1.0,1.0,0.0,0.0,451.0
6.0,1.0,1.0,0.0,0.0,487.0
7.0,1.0,1.0,0.0,0.0,541.0
8.0,1.0,1.0,0.0,0.0,611.0
9.0,1.0,1.0,0.0,0.0,671.0
10.0,1.0,1.0,0.0,0.0,683.0
11.0,1.0,1.0,0.0,0.0,628.0
12.0,1.0,1.0,0.0,0.0,575.0
13.0,1.0,1.0,0.0,0.0,529.0
14.0,1.0,1.0,0.0,0.0,528.0
15.0,1.0,1.0,0.0,0.0,515.0
0.0,1.0,1.0,0.0,0.0,508.0
1.0,1.0,1.0,0.0,0.0,478.0
2.0,1.0,1.0,0.0,0.0,458.0
3.0,1.0,1.0,0.0,0.0,471.0
4.0,1.0,1.0,0.0,0.0,471.0
5.0,1.0,1.0,0.0,0.0,426.0
6.0,1.0,1.0,0.0,0.0,408.0
7.0,1.0,1.0,0.0,0.0,409.0
8.0,1.0,1.0,0.0,0.0,417.0
9.0,1.0,1.0,0.0,0.0,427.0
10.0,1.0,1.0,0.0,0.0,445.0
11.0,1.0,1.0,0.0,0.0,498.0
12.0,1.0,1.0,0.0,0.0,568.0
13.0,1.0,1.0,0.0,0.0,627.0
14.0,1.0,1.0,0.0,0.0,660.0
15.0,1.0,1.0,0.0,0.0,627.0
0.0,1.0,1.0,0.0,0.0,570.0
1.0,1.0,1.0,0.0,0.0,521.0
2.0,1.0,1.0,0.0,0.0,503.0
3.0,1.0,1.0,0.0,0.0,503.0
4.0,1.0,1.0,0.0,0.0,510.0
5.0,1.0,1.0,0.0,0.0,555.0
6.0,1.0,1.0,0.0,0.0,593.0
7.0,1.0,1.0,0.0,0.0,587.0
8.0,1.0,1.0,0.0,0.0,537.0
9.0,1.0,1.0,0.0,0.0,444.0
10.0,1.0,1.0,0.0,0.0,369.0
11.0,1.0,1.0,0.0,0.0,333.0
12.0,1.0,1.0,0.0,0.0,337.0
13.0,1.0,1.0,0.0,0.0,363.0
14.0,1.0,1.0,0.0,0.0,402.0
15.0,1.0,1.0,0.0,0.0,462.0
0.0,1.0,1.0,0.0,0.0,512.0
1.0,1.0,1.0,0.0,0.0,588.0
2.0,1.0,1.0,0.0,0.0,626.0
3.0,1.0,1.0,0.0,0.0,607.0
4.0,1.0,1.0,0.0,0.0,582.0
5.0,1.0,1.0,0.0,0.0,605.0
6.0,1.0,1.0,0.0,0.0,640.0
7.0,1.0,1.0,0.0,0.0,622.0
8.0,1.0,1.0,0.0,0.0,583.0
9.0,1.0,1.0,0.0,0.0,562.0
10.0,1.0,1.0,0.0,0.0,550.0
11.0,1.0,1.0,0.0,0.0,532.0
12.0,1.0,1.0,0.0,0.0,488.0
13.0,1.0,1.0,0.0,0.0,393.0
14.0,1.0,1.0,0.0,0.0,365.0
15.0,1.0,1.0,0.0,0.0,370.0
0.0,1.0,1.0,0.0,0.0,400.0
1.0,1.0,1.0,0.0,0.0,428.0
2.0,1.0,1.0,0.0,0.0,466.0
3.0,1.0,1.0,0.0,0.0,505.0
4.0,1.0,1.0,0.0,0.0,572.0
5.0,1.0,1.0,0.0,0.0,634.0
6.0,1.0,1.0,0.0,0.0,647.0
7.0,1.0,1.0,0.0,0.0,616.0
8.0,1.0,1.0,0.0,0.0,575.0
9.0,1.0,1.0,0.0,0.0,529.0
10.0,1.0,1.0,0.0,0.0,510.0
11.0,1.0,1.0,0.0,0.0,519.0
12.0,1.0,1.0,0.0,0.0,531.0
13.0,1.0,1.0,0.0,0.0,497.0
14.0,1.0,1.0,0.0,0.0,461.0
15.0,1.0,1.0,0.0,0.0,473.0
0.0,1.0,1.0,0.0,0.0,463.0
1.0,1.0,1.0,0.0,0.0,444.0
2.0,1.0,1.0,0.0,0.0,414.0
3.0,1.0,1.0,0.0,0.0,372.0
4.0,1.0,1.0,0.0,0.0,392.0
5.0,1.0,1.0,0.0,0.0,452.0
6.0,1.0,1.0,0.0,0.0,513.0
7.0,1.0,1.0,0.0,0.0,526.0
8.0,1.0,1.0,0.0,0.0,563.0
9.0,1.0,1.0,0.0,0.0,625.0
10.0,1.0,1.0,0.0,0.0,664.0
11.0,1.0,1.0,0.0,0.0,583.0
12.0,1.0,1.0,0.0,0.0,542.0
13.0,1.0,1.0,0.0,0.0,546.0
14.0,1.0,1.0,0.0,0.0,563.0
15.0,1.0,1.0,0.0,0.0,601.0
0.0,1.0,1.0,0.0,0.0,598.0
1.0,1.0,1.0,0.0,0.0,569.0
2.0,1.0,1.0,0.0,0.0,516.0
3.0,1.0,1.0,0.0,0.0,481.0
4.0,1.0,1.0,0.0,0.0,471.0
5.0,1.0,1.0,0.0,0.0,405.0
6.0,1.0,1.0,0.0,0.0,338.0
7.0,1.0,1.0,0.0,0.0,319.0
8.0,1.0,1.0,0.0,0.0,350.0
9.0,1.0,1.0,0.0,0.0,391.0
10.0,1.0,1.0,0.0,0.0,442.0
11.0,1.0,1.0,0.0,0.0,533.0
12.0,1.0,1.0,0.0,0.0,603.0
13.0,1.0,1.0,0.0,0.0,649.0
14.0,1.0,1.0,0.0,0.0,640.0
15.0,1.0,1.0,0.0,0.0,599.0
0.0,1.0,1.0,0.0,0.0,607.0
1.0,1.0,1.0,0.0,0.0,599.0
2.0,1.0,1.0,0.0,0.0,584.0
3.0,1.0,1.0,0.0,0.0,567.0
4.0,1.0,1.0,0.0,0.0,515.0
5.0,1.0,1.0,0.0,0.0,496.0
6.0,1.0,1.0,0.0,0.0,539.0
7.0,1.0,1.0,0.0,0.0,569.0
8.0,1.0,1.0,0.0,0.0,546.0
9.0,1.0,1.0,0.0,0.0,449.0
10.0,1.0,1.0,0.0,0.0,375.0
11.0,1.0,1.0,0.0,0.0,324.0
12.0,1.0,1.0,0.0,0.0,353.0
13.0,1.0,1.0,0.0,0.0,407.0
14.0,1.0,1.0,0.0,0.0,453.0
15.0,1.0,1.0,0.0,0.0,529.0
0.0,1.0,1.0,0.0,0.0,593.0
1.0,1.0,1.0,0.0,0.0,666.0
2.0,1.0,1.0,0.0,0.0,706.0
3.0,1.0,1.0,0.0,0.0,663.0
4.0,1.0,1.0,0.0,0.0,602.0
5.0,1.0,1.0,0.0,0.0,519.0
6.0,1.0,1.0,0.0,0.0,499.0
7.0,1.0,1.0,0.0,0.0,508.0
8.0,1.0,1.0,0.0,0.0,536.0
9.0,1.0,1.0,0.0,0.0,573.0
10.0,1.0,1.0,0.0,0.0,564.0
11.0,1.0,1.0,0.0,0.0,531.0
12.0,1.0,1.0,0.0,0.0,483.0
13.0,1.0,1.0,0.0,0.0,370.0
14.0,1.0,1.0,0.0,0.0,280.0
15.0,1.0,1.0,0.0,0.0,307.0
0.0,1.0,1.0,0.0,0.0,395.0
1.0,1.0,1.0,0.0,0.0,467.0
2.0,1.0,1.0,0.0,0.0,498.0
3.0,1.0,1.0,0.0,0.0,502.0
4.0,1.0,1.0,0.0,0.0,534.0
5.0,1.0,1.0,0.0,0.0,603.0
6.0,1.0,1.0,0.0,0.0,679.0
7.0,1.0,1.0,0.0,0.0,642.0
8.0,1.0,1.0,0.0,0.0,573.0
9.0,1.0,1.0,0.0,0.0,535.0
10.0,1.0,1.0,0.0,0.0,531.0
11.0,1.0,1.0,0.0,0.0,522.0
12.0,1.0,1.0,0.0,0.0,498.0
13.0,1.0,1.0,0.0,0.0,488.0
14.0,1.0,1.0,0.0,0.0,534.0
15.0,1.0,1.0,0.0,0.0,582.0
0.0,1.0,1.0,0.0,0.0,588.0
1.0,1.0,1.0,0.0,0.0,493.0
2.0,1.0,1.0,0.0,0.0,374.0
3.0,1.0,1.0,0.0,0.0,311.0
4.0,1.0,1.0,0.0,0.0,324.0
5.0,1.0,1.0,0.0,0.0,377.0
6.0,1.0,1.0,0.0,0.0,458.0
7.0,1.0,1.0,0.0,0.0,497.0
8.0,1.0,1.0,0.0,0.0,552.0
9.0,1.0,1.0,0.0,0.0,643.0
10.0,1.0,1.0,0.0,0.0,700.0
11.0,1.0,1.0,0.0,0.0,654.0
12.0,1.0,1.0,0.0,0.0,577.0
13.0,1.0,1.0,0.0,0.0,523.0
14.0,1.0,1.0,0.0,0.0,491.0
15.0,1.0,1.0,0.0,0.0,483.0
0.0,1.0,1.0,0.0,0.0,467.0
1.0,1.0,1.0,0.0,0.0,441.0
2.0,1.0,1.0,0.0,0.0,511.0
3.0,1.0,1.0,0.0,0.0,573.0
4.0,1.0,1.0,0.0,0.0,600.0
5.0,1.0,1.0,0.0,0.0,525.0
6.0,1.0,1.0,0.0,0.0,438.0
7.0,1.0,1.0,0.0,0.0,476.0
8.0,1.0,1.0,0.0,0.0,510.0
9.0,1.0,1.0,0.0,0.0,507.0
10.0,1.0,1.0,0.0,0.0,487.0
11.0,1.0,1.0,0.0,0.0,484.0
12.0,1.0,1.0,0.0,0.0,522.0
13.0,1.0,1.0,0.0,0.0,595.0
14.0,1.0,1.0,0.0,0.0,623.0
15.0,1.0,1.0,0.0,0.0,579.0
0.0,1.0,1.0,0.0,0.0,519.0
1.0,1.0,1.0,0.0,0.0,478.0
2.0,1.0,1.0,0.0,0.0,489.0
3.0,1.0,1.0,0.0,0.0,536.0
4.0,1.0,1.0,0.0,0.0,537.0
5.0,1.0,1.0,0.0,0.0,468.0
6.0,1.0,1.0,0.0,0.0,452.0
7.0,1.0,1.0,0.0,0.0,510.0
8.0,1.0,1.0,0.0,0.0,539.0
9.0,1.0,1.0,0.0,0.0,464.0
10.0,1.0,1.0,0.0,0.0,368.0
11.0,1.0,1.0,0.0,0.0,308.0
12.0,1.0,1.0,0.0,0.0,349.0
13.0,1.0,1.0,0.0,0.0,410.0
14.0,1.0,1.0,0.0,0.0,467.0
15.0,1.0,1.0,0.0,0.0,532.0
0.0,1.0,1.0,0.0,0.0,555.0
1.0,1.0,1.0,0.0,0.0,609.0
2.0,1.0,1.0,0.0,0.0,643.0
3.0,1.0,1.0,0.0,0.0,653.0
4.0,1.0,1.0,0.0,0.0,639.0
5.0,1.0,1.0,0.0,0.0,576.0
6.0,1.0,1.0,0.0,0.0,564.0
7.0,1.0,1.0,0.0,0.0,577.0
8.0,1.0,1.0,0.0,0.0,604.0
9.0,1.0,1.0,0.0,0.0,645.0
10.0,1.0,1.0,0.0,0.0,600.0
11.0,1.0,1.0,0.0,0.0,514.0
12.0,1.0,1.0,0.0,0.0,436.0
13.0,1.0,1.0,0.0,0.0,340.0
14.0,1.0,1.0,0.0,0.0,307.0
15.0,1.0,1.0,0.0,0.0,328.0
0.0,1.0,1.0,0.0,0.0,384.0
1.0,1.0,1.0,0.0,0.0,432.0
2.0,1.0,1.0,0.0,0.0,445.0
3.0,1.0,1.0,0.0,0.0,475.0
4.0,1.0,1.0,0.0,0.0,553.0
5.0,1.0,1.0,0.0,0.0,684.0
6.0,1.0,1.0,0.0,0.0,734.0
7.0,1.0,1.0,0.0,0.0,698.0
8.0,1.0,1.0,0.0,0.0,669.0
9.0,1.0,1.0,0.0,0.0,551.0
10.0,1.0,1.0,0.0,0.0,518.0
11.0,1.0,1.0,0.0,0.0,526.0
12.0,1.0,1.0,0.0,0.0,510.0
13.0,1.0,1.0,0.0,0.0,502.0
14.0,1.0,1.0,0.0,0.0,480.0
15.0,1.0,1.0,0.0,0.0,454.0
0.0,1.0,1.0,0.0,0.0,412.0
1.0,1.0,1.0,0.0,0.0,362.0
2.0,1.0,1.0,0.0,0.0,336.0
3.0,1.0,1.0,0.0,0.0,266.0
4.0,1.0,1.0,0.0,0.0,353.0
5.0,1.0,1.0,0.0,0.0,433.0
6.0,1.0,1.0,0.0,0.0,498.0
7.0,1.0,1.0,0.0,0.0,539.0
8.0,1.0,1.0,0.0,0.0,589.0
9.0,1.0,1.0,0.0,0.0,656.0
10.0,1.0,1.0,0.0,0.0,684.0
11.0,1.0,1.0,0.0,0.0,638.0
12.0,1.0,1.0,0.0,0.0,606.0
13.0,1.0,1.0,0.0,0.0,618.0
14.0,1.0,1.0,0.0,0.0,611.0
15.0,1.0,1.0,0.0,0.0,598.0
0.0,1.0,1.0,0.0,0.0,558.0
1.0,1.0,1.0,0.0,0.0,527.0
2.0,1.0,1.0,0.0,0.0,466.0
3.0,1.0,1.0,0.0,0.0,487.0
4.0,1.0,1.0,0.0,0.0,495.0
5.0,1.0,1.0,0.0,0.0,395.0
6.0,1.0,1.0,0.0,0.0,330.0
7.0,1.0,1.0,0.0,0.0,286.0
8.0,1.0,1.0,0.0,0.0,288.0
9.0,1.0,1.0,0.0,0.0,358.0
10.0,1.0,1.0,0.0,0.0,415.0
11.0,1.0,1.0,0.0,0.0,506.0
12.0,1.0,1.0,0.0,0.0,597.0
13.0,1.0,1.0,0.0,0.0,673.0
14.0,1.0,1.0,0.0,0.0,725.0
15.0,1.0,1.0,0.0,0.0,654.0
0.0,1.0,1.0,0.0,0.0,606.0
1.0,1.0,1.0,0.0,0.0,585.0
2.0,1.0,1.0,0.0,0.0,543.0
3.0,1.0,1.0,0.0,0.0,509.0
4.0,1.0,1.0,0.0,0.0,511.0
5.0,1.0,1.0,0.0,0.0,588.0
6.0,1.0,1.0,0.0,0.0,654.0
7.0,1.0,1.0,0.0,0.0,611.0
8.0,1.0,1.0,0.0,0.0,519.0
9.0,1.0,1.0,0.0,0.0,423.0
10.0,1.0,1.0,0.0,0.0,314.0
11.0,1.0,1.0,0.0,0.0,268.0
12.0,1.0,1.0,0.0,0.0,326.0
13.0,1.0,1.0,0.0,0.0,413.0
14.0,1.0,1.0,0.0,0.0,457.0
15.0,1.0,1.0,0.0,0.0,541.0
0.0,1.0,1.0,0.0,0.0,625.0
1.0,1.0,1.0,0.0,0.0,642.0
2.0,1.0,1.0,0.0,0.0,615.0
3.0,1.0,1.0,0.0,0.0,582.0
4.0,1.0,1.0,0.0,0.0,568.0
5.0,1.0,1.0,0.0,0.0,589.0
6.0,1.0,1.0,0.0,0.0,559.0
7.0,1.0,1.0,0.0,0.0,582.0
8.0,1.0,1.0,0.0,0.0,556.0
9.0,1.0,1.0,0.0,0.0,514.0
10.0,1.0,1.0,0.0,0.0,494.0
11.0,1.0,1.0,0.0,0.0,482.0
12.0,1.0,1.0,0.0,0.0,456.0
13.0,1.0,1.0,0.0,0.0,360.0
14.0,1.0,1.0,0.0,0.0,298.0
15.0,1.0,1.0,0.0,0.0,366.0
0.0,1.0,1.0,0.0,0.0,457.0
1.0,1.0,1.0,0.0,0.0,504.0
2.0,1.0,1.0,0.0,0.0,478.0
3.0,1.0,1.0,0.0,0.0,481.0
4.0,1.0,1.0,0.0,0.0,543.0
5.0,1.0,1.0,0.0,0.0,629.0
6.0,1.0,1.0,0.0,0.0,714.0
7.0,1.0,1.0,0.0,0.0,671.0
8.0,1.0,1.0,0.0,0.0,601.0
9.0,1.0,1.0,0.0,0.0,554.0
10.0,1.0,1.0,0.0,0.0,511.0
11.0,1.0,1.0,0.0,0.0,499.0
12.0,1.0,1.0,0.0,0.0,471.0
13.0,1.0,1.0,0.0,0.0,476.0
14.0,1.0,1.0,0.0,0.0,500.0
15.0,1.0,1.0,0.0,0.0,534.0
0.0,1.0,1.0,0.0,0.0,558.0
1.0,1.0,1.0,0.0,0.0,457.0
2.0,1.0,1.0,0.0,0.0,337.0
3.0,1.0,1.0,0.0,0.0,309.0
4.0,1.0,1.0,0.0,0.0,321.0
5.0,1.0,1.0,0.0,0.0,374.0
6.0,1.0,1.0,0.0,0.0,386.0
7.0,1.0,1.0,0.0,0.0,452.0
8.0,1.0,1.0,0.0,0.0,624.0
9.0,1.0,1.0,0.0,0.0,769.0
10.0,1.0,1.0,0.0,0.0,817.0
11.0,1.0,1.0,0.0,0.0,708.0
12.0,1.0,1.0,0.0,0.0,570.0
13.0,1.0,1.0,0.0,0.0,527.0
14.0,1.0,1.0,0.0,0.0,546.0
15.0,1.0,1.0,0.0,0.0,549.0
0.0,1.0,1.0,0.0,0.0,556.0
1.0,1.0,1.0,0.0,0.0,543.0
2.0,1.0,1.0,0.0,0.0,515.0
3.0,1.0,1.0,0.0,0.0,490.0
4.0,1.0,1.0,0.0,0.0,451.0
5.0,1.0,1.0,0.0,0.0,386.0
6.0,1.0,1.0,0.0,0.0,352.0
7.0,1.0,1.0,0.0,0.0,365.0
8.0,1.0,1.0,0.0,0.0,372.0
9.0,1.0,1.0,0.0,0.0,349.0
10.0,1.0,1.0,0.0,0.0,378.0
11.0,1.0,1.0,0.0,0.0,443.0
12.0,1.0,1.0,0.0,0.0,531.0
13.0,1.0,1.0,0.0,0.0,656.0
14.0,1.0,1.0,0.0,0.0,675.0
15.0,1.0,1.0,0.0,0.0,584.0
0.0,1.0,1.0,0.0,0.0,605.0
1.0,1.0,1.0,0.0,0.0,639.0
2.0,1.0,1.0,0.0,0.0,615.0
3.0,1.0,1.0,0.0,0.0,557.0
4.0,1.0,1.0,0.0,0.0,551.0
5.0,1.0,1.0,0.0,0.0,574.0
6.0,1.0,1.0,0.0,0.0,588.0
7.0,1.0,1.0,0.0,0.0,568.0
8.0,1.0,1.0,0.0,0.0,440.0
9.0,1.0,1.0,0.0,0.0,352.0
10.0,1.0,1.0,0.0,0.0,307.0
11.0,1.0,1.0,0.0,0.0,239.0
12.0,1.0,1.0,0.0,0.0,289.0
13.0,1.0,1.0,0.0,0.0,482.0
14.0,1.0,1.0,0.0,0.0,575.0
15.0,1.0,1.0,0.0,0.0,596.0
0.0,1.0,1.0,0.0,0.0,594.0
1.0,1.0,1.0,0.0,0.0,620.0
2.0,1.0,1.0,0.0,0.0,617.0
3.0,1.0,1.0,0.0,0.0,566.0
4.0,1.0,1.0,0.0,0.0,549.0
5.0,1.0,1.0,0.0,0.0,556.0
6.0,1.0,1.0,0.0,0.0,579.0
7.0,1.0,1.0,0.0,0.0,569.0
8.0,1.0,1.0,0.0,0.0,509.0
9.0,1.0,1.0,0.0,0.0,503.0
10.0,1.0,1.0,0.0,0.0,464.0
11.0,1.0,1.0,0.0,0.0,477.0
12.0,1.0,1.0,0.0,0.0,533.0
13.0,1.0,1.0,0.0,0.0,434.0
14.0,1.0,1.0,0.0,0.0,304.0
15.0,1.0,1.0,0.0,0.0,299.0
0.0,1.0,1.0,0.0,0.0,335.0
1.0,1.0,1.0,0.0,0.0,365.0
2.0,1.0,1.0,0.0,0.0,388.0
3.0,1.0,1.0,0.0,0.0,402.0
4.0,1.0,1.0,0.0,0.0,495.0
5.0,1.0,1.0,0.0,0.0,768.0
6.0,1.0,1.0,0.0,0.0,802.0
7.0,1.0,1.0,0.0,0.0,672.0
8.0,1.0,1.0,0.0,0.0,612.0
9.0,1.0,1.0,0.0,0.0,572.0
10.0,1.0,1.0,0.0,0.0,590.0
11.0,1.0,1.0,0.0,0.0,621.0
12.0,1.0,1.0,0.0,0.0,630.0
13.0,1.0,1.0,0.0,0.0,629.0
14.0,1.0,1.0,0.0,0.0,553.0
15.0,1.0,1.0,0.0,0.0,409.0
0.0,1.0,1.0,0.0,0.0,342.0
1.0,1.0,1.0,0.0,0.0,324.0
2.0,1.0,1.0,0.0,0.0,300.0
3.0,1.0,1.0,0.0,0.0,336.0
4.0,1.0,1.0,0.0,0.0,380.0
5.0,1.0,1.0,0.0,0.0,466.0
6.0,1.0,1.0,0.0,0.0,479.0
7.0,1.0,1.0,0.0,0.0,503.0
8.0,1.0,1.0,0.0,0.0,624.0
9.0,1.0,1.0,0.0,0.0,679.0
10.0,1.0,1.0,0.0,0.0,658.0
11.0,1.0,1.0,0.0,0.0,615.0
12.0,1.0,1.0,0.0,0.0,626.0
13.0,1.0,1.0,0.0,0.0,574.0
14.0,1.0,1.0,0.0,0.0,522.0
15.0,1.0,1.0,0.0,0.0,502.0
0.0,1.0,1.0,0.0,0.0,547.0
1.0,1.0,1.0,0.0,0.0,529.0
2.0,1.0,1.0,0.0,0.0,514.0
3.0,1.0,1.0,0.0,0.0,472.0
4.0,1.0,1.0,0.0,0.0,443.0
5.0,1.0,1.0,0.0,0.0,405.0
6.0,1.0,1.0,0.0,0.0,385.0
7.0,1.0,1.0,0.0,0.0,368.0
8.0,1.0,1.0,0.0,0.0,454.0
9.0,1.0,1.0,0.0,0.0,504.0
10.0,1.0,1.0,0.0,0.0,483.0
11.0,1.0,1.0,0.0,0.0,468.0
12.0,1.0,1.0,0.0,0.0,510.0
13.0,1.0,1.0,0.0,0.0,579.0
14.0,1.0,1.0,0.0,0.0,649.0
15.0,1.0,1.0,0.0,0.0,690.0
0.0,1.0,1.0,0.0,0.0,619.0
1.0,1.0,1.0,0.0,0.0,536.0
2.0,1.0,1.0,0.0,0.0,503.0
3.0,1.0,1.0,0.0,0.0,492.0
4.0,1.0,1.0,0.0,0.0,564.0
5.0,1.0,1.0,0.0,0.0,558.0
6.0,1.0,1.0,0.0,0.0,580.0
7.0,1.0,1.0,0.0,0.0,569.0
8.0,1.0,1.0,0.0,0.0,529.0
9.0,1.0,1.0,0.0,0.0,450.0
10.0,1.0,1.0,0.0,0.0,336.0
11.0,1.0,1.0,0.0,0.0,332.0
12.0,1.0,1.0,0.0,0.0,318.0
13.0,1.0,1.0,0.0,0.0,312.0
14.0,1.0,1.0,0.0,0.0,401.0
15.0,1.0,1.0,0.0,0.0,521.0
0.0,1.0,1.0,0.0,0.0,613.0
1.0,1.0,1.0,0.0,0.0,731.0
2.0,1.0,1.0,0.0,0.0,775.0
3.0,1.0,1.0,0.0,0.0,688.0
4.0,1.0,1.0,0.0,0.0,602.0
5.0,1.0,1.0,0.0,0.0,526.0
6.0,1.0,1.0,0.0,0.0,517.0
7.0,1.0,1.0,0.0,0.0,548.0
8.0,1.0,1.0,0.0,0.0,554.0
9.0,1.0,1.0,0.0,0.0,500.0
10.0,1.0,1.0,0.0,0.0,509.0
11.0,1.0,1.0,0.0,0.0,453.0
12.0,1.0,1.0,0.0,0.0,367.0
13.0,1.0,1.0,0.0,0.0,369.0
14.0,1.0,1.0,0.0,0.0,449.0
15.0,1.0,1.0,0.0,0.0,480.0
0.0,1.0,1.0,0.0,0.0,472.0
1.0,1.0,1.0,0.0,0.0,465.0
2.0,1.0,1.0,0.0,0.0,473.0
3.0,1.0,1.0,0.0,0.0,534.0
4.0,1.0,1.0,0.0,0.0,543.0
5.0,1.0,1.0,0.0,0.0,517.0
6.0,1.0,1.0,0.0,0.0,532.0
7.0,1.0,1.0,0.0,0.0,549.0
8.0,1.0,1.0,0.0,0.0,539.0
9.0,1.0,1.0,0.0,0.0,522.0
10.0,1.0,1.0,0.0,0.0,577.0
11.0,1.0,1.0,0.0,0.0,652.0
12.0,1.0,1.0,0.0,0.0,600.0
13.0,1.0,1.0,0.0,0.0,532.0
14.0,1.0,1.0,0.0,0.0,535.0
15.0,1.0,1.0,0.0,0.0,609.0
0.0,1.0,1.0,0.0,0.0,604.0
1.0,1.0,1.0,0.0,0.0,492.0
2.0,1.0,1.0,0.0,0.0,362.0
3.0,1.0,1.0,0.0,0.0,288.0
4.0,1.0,1.0,0.0,0.0,316.0
5.0,1.0,1.0,0.0,0.0,350.0
6.0,1.0,1.0,0.0,0.0,395.0
7.0,1.0,1.0,0.0,0.0,479.0
8.0,1.0,1.0,0.0,0.0,584.0
9.0,1.0,1.0,0.0,0.0,631.0
10.0,1.0,1.0,0.0,0.0,623.0
11.0,1.0,1.0,0.0,0.0,578.0
12.0,1.0,1.0,0.0,0.0,641.0
13.0,1.0,1.0,0.0,0.0,643.0
14.0,1.0,1.0,0.0,0.0,575.0
15.0,1.0,1.0,0.0,0.0,566.0
0.0,1.0,1.0,0.0,0.0,552.0
1.0,1.0,1.0,0.0,0.0,486.0
2.0,1.0,1.0,0.0,0.0,430.0
3.0,1.0,1.0,0.0,0.0,429.0
4.0,1.0,1.0,0.0,0.0,459.0
5.0,1.0,1.0,0.0,0.0,435.0
6.0,1.0,1.0,0.0,0.0,356.0
7.0,1.0,1.0,0.0,0.0,334.0
8.0,1.0,1.0,0.0,0.0,336.0
9.0,1.0,1.0,0.0,0.0,380.0
10.0,1.0,1.0,0.0,0.0,431.0
11.0,1.0,1.0,0.0,0.0,559.0
12.0,1.0,1.0,0.0,0.0,615.0
13.0,1.0,1.0,0.0,0.0,657.0
14.0,1.0,1.0,0.0,0.0,693.0
15.0,1.0,1.0,0.0,0.0,655.0
0.0,1.0,1.0,0.0,0.0,565.0
1.0,1.0,1.0,0.0,0.0,520.0
2.0,1.0,1.0,0.0,0.0,491.0
3.0,1.0,1.0,0.0,0.0,518.0
4.0,1.0,1.0,0.0,0.0,533.0
5.0,1.0,1.0,0.0,0.0,496.0
6.0,1.0,1.0,0.0,0.0,480.0
7.0,1.0,1.0,0.0,0.0,551.0
8.0,1.0,1.0,0.0,0.0,561.0
9.0,1.0,1.0,0.0,0.0,435.0
10.0,1.0,1.0,0.0,0.0,405.0
11.0,1.0,1.0,0.0,0.0,408.0
12.0,1.0,1.0,0.0,0.0,360.0
13.0,1.0,1.0,0.0,0.0,391.0
14.0,1.0,1.0,0.0,0.0,462.0
15.0,1.0,1.0,0.0,0.0,507.0
0.0,1.0,1.0,0.0,0.0,511.0
1.0,1.0,1.0,0.0,0.0,542.0
2.0,1.0,1.0,0.0,0.0,574.0
3.0,1.0,1.0,0.0,0.0,600.0
4.0,1.0,1.0,0.0,0.0,660.0
5.0,1.0,1.0,0.0,0.0,665.0
6.0,1.0,1.0,0.0,0.0,691.0
7.0,1.0,1.0,0.0,0.0,675.0
8.0,1.0,1.0,0.0,0.0,604.0
9.0,1.0,1.0,0.0,0.0,579.0
10.0,1.0,1.0,0.0,0.0,529.0
11.0,1.0,1.0,0.0,0.0,473.0
12.0,1.0,1.0,0.0,0.0,432.0
13.0,1.0,1.0,0.0,0.0,339.0
14.0,1.0,1.0,0.0,0.0,273.0
15.0,1.0,1.0,0.0,0.0,307.0
0.0,1.0,1.0,0.0,0.0,344.0
1.0,1.0,1.0,0.0,0.0,371.0
2.0,1.0,1.0,0.0,0.0,448.0
3.0,1.0,1.0,0.0,0.0,524.0
4.0,1.0,1.0,0.0,0.0,563.0
5.0,1.0,1.0,0.0,0.0,623.0
6.0,1.0,1.0,0.0,0.0,643.0
7.0,1.0,1.0,0.0,0.0,676.0
8.0,1.0,1.0,0.0,0.0,679.0
9.0,1.0,1.0,0.0,0.0,631.0
10.0,1.0,1.0,0.0,0.0,543.0
11.0,1.0,1.0,0.0,0.0,528.0
12.0,1.0,1.0,0.0,0.0,550.0
13.0,1.0,1.0,0.0,0.0,588.0
14.0,1.0,1.0,0.0,0.0,547.0
15.0,1.0,1.0,0.0,0.0,551.0
0.0,1.0,1.0,0.0,0.0,553.0
1.0,1.0,1.0,0.0,0.0,459.0
2.0,1.0,1.0,0.0,0.0,370.0
3.0,1.0,1.0,0.0,0.0,361.0
4.0,1.0,1.0,0.0,0.0,319.0
5.0,1.0,1.0,0.0,0.0,337.0
6.0,1.0,1.0,0.0,0.0,400.0
7.0,1.0,1.0,0.0,0.0,492.0
8.0,1.0,1.0,0.0,0.0,531.0
9.0,1.0,1.0,0.0,0.0,633.0
10.0,1.0,1.0,0.0,0.0,728.0
11.0,1.0,1.0,0.0,0.0,698.0
12.0,1.0,1.0,0.0,0.0,616.0
13.0,1.0,1.0,0.0,0.0,568.0
14.0,1.0,1.0,0.0,0.0,527.0
15.0,1.0,1.0,0.0,0.0,506.0
0.0,1.0,1.0,0.0,0.0,500.0
1.0,1.0,1.0,0.0,0.0,515.0
2.0,1.0,1.0,0.0,0.0,496.0
3.0,1.0,1.0,0.0,0.0,497.0
4.0,1.0,1.0,0.0,0.0,491.0
5.0,1.0,1.0,0.0,0.0,384.0
6.0,1.0,1.0,0.0,0.0,345.0
7.0,1.0,1.0,0.0,0.0,333.0
8.0,1.0,1.0,0.0,0.0,346.0
9.0,1.0,1.0,0.0,0.0,373.0
10.0,1.0,1.0,0.0,0.0,435.0
11.0,1.0,1.0,0.0,0.0,522.0
12.0,1.0,1.0,0.0,0.0,611.0
13.0,1.0,1.0,0.0,0.0,685.0
14.0,1.0,1.0,0.0,0.0,741.0
15.0,1.0,1.0,0.0,0.0,652.0
0.0,1.0,1.0,0.0,0.0,577.0
1.0,1.0,1.0,0.0,0.0,588.0
2.0,1.0,1.0,0.0,0.0,587.0
3.0,1.0,1.0,0.0,0.0,529.0
4.0,1.0,1.0,0.0,0.0,482.0
5.0,1.0,1.0,0.0,0.0,446.0
6.0,1.0,1.0,0.0,0.0,445.0
7.0,1.0,1.0,0.0,0.0,476.0
8.0,1.0,1.0,0.0,0.0,475.0
9.0,1.0,1.0,0.0,0.0,427.0
10.0,1.0,1.0,0.0,0.0,387.0
11.0,1.0,1.0,0.0,0.0,359.0
12.0,1.0,1.0,0.0,0.0,404.0
13.0,1.0,1.0,0.0,0.0,380.0
14.0,1.0,1.0,0.0,0.0,364.0
15.0,1.0,1.0,0.0,0.0,483.0
0.0,1.0,1.0,0.0,0.0,577.0
1.0,1.0,1.0,0.0,0.0,600.0
2.0,1.0,1.0,0.0,0.0,649.0
3.0,1.0,1.0,0.0,0.0,723.0
4.0,1.0,1.0,0.0,0.0,648.0
5.0,1.0,1.0,0.0,0.0,593.0
6.0,1.0,1.0,0.0,0.0,568.0
7.0,1.0,1.0,0.0,0.0,534.0
8.0,1.0,1.0,0.0,0.0,500.0
9.0,1.0,1.0,0.0,0.0,517.0
10.0,1.0,1.0,0.0,0.0,578.0
11.0,1.0,1.0,0.0,0.0,536.0
12.0,1.0,1.0,0.0,0.0,511.0
13.0,1.0,1.0,0.0,0.0,449.0
14.0,1.0,1.0,0.0,0.0,363.0
15.0,1.0,1.0,0.0,0.0,322.0
0.0,1.0,1.0,0.0,0.0,366.0
1.0,1.0,1.0,0.0,0.0,436.0
2.0,1.0,1.0,0.0,0.0,470.0
3.0,1.0,1.0,0.0,0.0,475.0
4.0,1.0,1.0,0.0,0.0,535.0
5.0,1.0,1.0,0.0,0.0,620.0
6.0,1.0,1.0,0.0,0.0,668.0
7.0,1.0,1.0,0.0,0.0,659.0
8.0,1.0,1.0,0.0,0.0,612.0
9.0,1.0,1.0,0.0,0.0,545.0
10.0,1.0,1.0,0.0,0.0,531.0
11.0,1.0,1.0,0.0,0.0,526.0
12.0,1.0,1.0,0.0,0.0,508.0
13.0,1.0,1.0,0.0,0.0,472.0
14.0,1.0,1.0,0.0,0.0,470.0
15.0,1.0,1.0,0.0,0.0,460.0
0.0,1.0,1.0,0.0,0.0,482.0
1.0,1.0,1.0,0.0,0.0,471.0
2.0,1.0,1.0,0.0,0.0,451.0
3.0,1.0,1.0,0.0,0.0,423.0
4.0,1.0,1.0,0.0,0.0,418.0
5.0,1.0,1.0,0.0,0.0,423.0
6.0,1.0,1.0,0.0,0.0,476.0
7.0,1.0,1.0,0.0,0.0,539.0
8.0,1.0,1.0,0.0,0.0,561.0
9.0,1.0,1.0,0.0,0.0,610.0
10.0,1.0,1.0,0.0,0.0,659.0
11.0,1.0,1.0,0.0,0.0,652.0
12.0,1.0,1.0,0.0,0.0,604.0
13.0,1.0,1.0,0.0,0.0,502.0
14.0,1.0,1.0,0.0,0.0,501.0
15.0,1.0,1.0,0.0,0.0,557.0
0.0,1.0,1.0,0.0,0.0,556.0
1.0,1.0,1.0,0.0,0.0,493.0
2.0,1.0,1.0,0.0,0.0,489.0
3.0,1.0,1.0,0.0,0.0,551.0
4.0,1.0,1.0,0.0,0.0,521.0
5.0,1.0,1.0,0.0,0.0,430.0
6.0,1.0,1.0,0.0,0.0,388.0
7.0,1.0,1.0,0.0,0.0,371.0
8.0,1.0,1.0,0.0,0.0,371.0
9.0,1.0,1.0,0.0,0.0,401.0
10.0,1.0,1.0,0.0,0.0,463.0
11.0,1.0,1.0,0.0,0.0,580.0
12.0,1.0,1.0,0.0,0.0,651.0
13.0,1.0,1.0,0.0,0.0,657.0
14.0,1.0,1.0,0.0,0.0,605.0
15.0,1.0,1.0,0.0,0.0,580.0
0.0,1.0,1.0,0.0,0.0,579.0
1.0,1.0,1.0,0.0,0.0,549.0
2.0,1.0,1.0,0.0,0.0,526.0
3.0,1.0,1.0,0.0,0.0,509.0
4.0,1.0,1.0,0.0,0.0,491.0
5.0,1.0,1.0,0.0,0.0,494.0
6.0,1.0,1.0,0.0,0.0,504.0
7.0,1.0,1.0,0.0,0.0,528.0
8.0,1.0,1.0,0.0,0.0,473.0
9.0,1.0,1.0,0.0,0.0,398.0
10.0,1.0,1.0,0.0,0.0,380.0
11.0,1.0,1.0,0.0,0.0,401.0
12.0,1.0,1.0,0.0,0.0,455.0
13.0,1.0,1.0,0.0,0.0,434.0
14.0,1.0,1.0,0.0,0.0,433.0
15.0,1.0,1.0,0.0,0.0,501.0
0.0,1.0,1.0,0.0,0.0,595.0
1.0,1.0,1.0,0.0,0.0,628.0
2.0,1.0,1.0,0.0,0.0,577.0
3.0,1.0,1.0,0.0,0.0,508.0
4.0,1.0,1.0,0.0,0.0,511.0
5.0,1.0,1.0,0.0,0.0,582.0
6.0,1.0,1.0,0.0,0.0,634.0
7.0,1.0,1.0,0.0,0.0,599.0
8.0,1.0,1.0,0.0,0.0,539.0
9.0,1.0,1.0,0.0,0.0,519.0
10.0,1.0,1.0,0.0,0.0,462.0
11.0,1.0,1.0,0.0,0.0,415.0
12.0,1.0,1.0,0.0,0.0,418.0
13.0,1.0,1.0,0.0,0.0,396.0
14.0,1.0,1.0,0.0,0.0,379.0
15.0,1.0,1.0,0.0,0.0,417.0
0.0,1.0,1.0,0.0,0.0,458.0
1.0,1.0,1.0,0.0,0.0,476.0
2.0,1.0,1.0,0.0,0.0,543.0
3.0,1.0,1.0,0.0,0.0,603.0
4.0,1.0,1.0,0.0,0.0,617.0
5.0,1.0,1.0,0.0,0.0,623.0
6.0,1.0,1.0,0.0,0.0,606.0
7.0,1.0,1.0,0.0,0.0,562.0
8.0,1.0,1.0,0.0,0.0,546.0
9.0,1.0,1.0,0.0,0.0,550.0
10.0,1.0,1.0,0.0,0.0,543.0
11.0,1.0,1.0,0.0,0.0,488.0
12.0,1.0,1.0,0.0,0.0,498.0
13.0,1.0,1.0,0.0,0.0,536.0
14.0,1.0,1.0,0.0,0.0,540.0
15.0,1.0,1.0,0.0,0.0,506.0
0.0,1.0,1.0,0.0,0.0,483.0
1.0,1.0,1.0,0.0,0.0,408.0
2.0,1.0,1.0,0.0,0.0,406.0
3.0,1.0,1.0,0.0,0.0,418.0
4.0,1.0,1.0,0.0,0.0,391.0
5.0,1.0,1.0,0.0,0.0,418.0
6.0,1.0,1.0,0.0,0.0,455.0
7.0,0.0,1.0,0.0,0.0,534.0
8.0,0.0,1.0,0.0,0.0,600.0
9.0,0.0,1.0,0.0,0.0,679.0
10.0,0.0,1.0,0.0,0.0,645.0
11.0,0.0,1.0,0.0,0.0,614.0
12.0,0.0,1.0,0.0,0.0,625.0
13.0,0.0,1.0,0.0,0.0,599.0
14.0,0.0,1.0,0.0,0.0,553.0
15.0,0.0,1.0,0.0,0.0,514.0
0.0,0.0,1.0,0.0,0.0,489.0
1.0,0.0,1.0,0.0,0.0,476.0
2.0,0.0,1.0,0.0,0.0,511.0
3.0,0.0,1.0,0.0,0.0,539.0
4.0,0.0,1.0,0.0,0.0,442.0
5.0,0.0,1.0,0.0,0.0,391.0
6.0,0.0,1.0,0.0,0.0,360.0
7.0,0.0,1.0,0.0,0.0,338.0
8.0,0.0,1.0,0.0,0.0,357.0
9.0,0.0,1.0,0.0,0.0,399.0
10.0,0.0,1.0,0.0,0.0,476.0
11.0,0.0,1.0,0.0,0.0,583.0
12.0,0.0,1.0,0.0,0.0,606.0
13.0,0.0,1.0,0.0,0.0,624.0
14.0,0.0,1.0,0.0,0.0,651.0
15.0,0.0,1.0,0.0,0.0,625.0
0.0,0.0,1.0,0.0,0.0,620.0
1.0,0.0,1.0,0.0,0.0,583.0
2.0,0.0,1.0,0.0,0.0,515.0
3.0,0.0,1.0,0.0,0.0,499.0
4.0,0.0,1.0,0.0,0.0,495.0
5.0,0.0,1.0,0.0,0.0,538.0
6.0,0.0,1.0,0.0,0.0,540.0
7.0,0.0,1.0,0.0,0.0,510.0
8.0,0.0,1.0,0.0,0.0,480.0
9.0,0.0,1.0,0.0,0.0,453.0
10.0,0.0,1.0,0.0,0.0,413.0
11.0,0.0,1.0,0.0,0.0,351.0
12.0,0.0,1.0,0.0,0.0,362.0
13.0,0.0,1.0,0.0,0.0,395.0
14.0,0.0,1.0,0.0,0.0,447.0
15.0,0.0,1.0,0.0,0.0,505.0
0.0,0.0,1.0,0.0,0.0,542.0
1.0,0.0,1.0,0.0,0.0,607.0
2.0,0.0,1.0,0.0,0.0,662.0
3.0,0.0,1.0,0.0,0.0,635.0
4.0,0.0,1.0,0.0,0.0,572.0
5.0,0.0,1.0,0.0,0.0,503.0
6.0,0.0,1.0,0.0,0.0,504.0
7.0,0.0,1.0,0.0,0.0,572.0
8.0,0.0,1.0,0.0,0.0,634.0
9.0,0.0,1.0,0.0,0.0,615.0
10.0,0.0,1.0,0.0,0.0,552.0
11.0,0.0,1.0,0.0,0.0,527.0
12.0,0.0,1.0,0.0,0.0,471.0
13.0,0.0,1.0,0.0,0.0,408.0
14.0,0.0,1.0,0.0,0.0,320.0
15.0,0.0,1.0,0.0,0.0,307.0
0.0,0.0,1.0,0.0,0.0,365.0
1.0,0.0,1.0,0.0,0.0,388.0
2.0,0.0,1.0,0.0,0.0,396.0
3.0,0.0,1.0,0.0,0.0,448.0
4.0,0.0,1.0,0.0,0.0,574.0
5.0,0.0,1.0,0.0,0.0,668.0
6.0,0.0,1.0,0.0,0.0,709.0
7.0,0.0,1.0,0.0,0.0,659.0
8.0,0.0,1.0,0.0,0.0,618.0
9.0,0.0,1.0,0.0,0.0,601.0
10.0,0.0,1.0,0.0,0.0,605.0
11.0,0.0,1.0,0.0,0.0,558.0
12.0,0.0,1.0,0.0,0.0,524.0
13.0,0.0,1.0,0.0,0.0,505.0
14.0,0.0,1.0,0.0,0.0,489.0
15.0,0.0,1.0,0.0,0.0,517.0
0.0,0.0,1.0,0.0,0.0,487.0
1.0,0.0,1.0,0.0,0.0,364.0
2.0,0.0,1.0,0.0,0.0,351.0
3.0,0.0,1.0,0.0,0.0,372.0
4.0,0.0,1.0,0.0,0.0,388.0
5.0,0.0,1.0,0.0,0.0,402.0
6.0,0.0,1.0,0.0,0.0,437.0
7.0,0.0,1.0,0.0,0.0,515.0
8.0,0.0,1.0,0.0,0.0,572.0
9.0,0.0,1.0,0.0,0.0,628.0
10.0,0.0,1.0,0.0,0.0,630.0
11.0,0.0,1.0,0.0,0.0,594.0
12.0,0.0,1.0,0.0,0.0,561.0
13.0,0.0,1.0,0.0,0.0,557.0
14.0,0.0,1.0,0.0,0.0,542.0
15.0,0.0,1.0,0.0,0.0,520.0
0.0,0.0,1.0,0.0,0.0,515.0
1.0,0.0,1.0,0.0,0.0,544.0
2.0,0.0,1.0,0.0,0.0,555.0
3.0,0.0,1.0,0.0,0.0,507.0
4.0,0.0,1.0,0.0,0.0,474.0
5.0,0.0,1.0,0.0,0.0,425.0
6.0,0.0,1.0,0.0,0.0,402.0
7.0,0.0,1.0,0.0,0.0,386.0
8.0,0.0,1.0,0.0,0.0,393.0
9.0,0.0,1.0,0.0,0.0,437.0
10.0,0.0,1.0,0.0,0.0,478.0
11.0,0.0,1.0,0.0,0.0,511.0
12.0,0.0,1.0,0.0,0.0,559.0
13.0,0.0,1.0,0.0,0.0,630.0
14.0,0.0,1.0,0.0,0.0,642.0
15.0,0.0,1.0,0.0,0.0,617.0
0.0,0.0,1.0,0.0,0.0,622.0
1.0,0.0,1.0,0.0,0.0,619.0
2.0,0.0,1.0,0.0,0.0,586.0
3.0,0.0,1.0,0.0,0.0,572.0
4.0,0.0,1.0,0.0,0.0,541.0
5.0,0.0,1.0,0.0,0.0,502.0
6.0,0.0,1.0,0.0,0.0,470.0
7.0,0.0,1.0,0.0,0.0,456.0
8.0,0.0,1.0,0.0,0.0,422.0
9.0,0.0,1.0,0.0,0.0,352.0
10.0,0.0,1.0,0.0,0.0,339.0
11.0,0.0,1.0,0.0,0.0,357.0
12.0,0.0,1.0,0.0,0.0,379.0
13.0,0.0,1.0,0.0,0.0,463.0
14.0,0.0,1.0,0.0,0.0,535.0
15.0,0.0,1.0,0.0,0.0,604.0
0.0,0.0,1.0,0.0,0.0,615.0
1.0,0.0,1.0,0.0,0.0,622.0
2.0,0.0,1.0,0.0,0.0,638.0
3.0,0.0,1.0,0.0,0.0,571.0
4.0,0.0,1.0,0.0,0.0,556.0
5.0,0.0,1.0,0.0,0.0,547.0
6.0,0.0,1.0,0.0,0.0,542.0
7.0,0.0,1.0,0.0,0.0,544.0
8.0,0.0,1.0,0.0,0.0,532.0
9.0,0.0,1.0,0.0,0.0,517.0
10.0,0.0,1.0,0.0,0.0,531.0
11.0,0.0,1.0,0.0,0.0,572.0
12.0,0.0,1.0,0.0,0.0,533.0
13.0,0.0,1.0,0.0,0.0,441.0
14.0,0.0,1.0,0.0,0.0,352.0
15.0,0.0,1.0,0.0,0.0,305.0
0.0,0.0,1.0,0.0,0.0,352.0
1.0,0.0,1.0,0.0,0.0,406.0
2.0,0.0,1.0,0.0,0.0,446.0
3.0,0.0,1.0,0.0,0.0,505.0
4.0,0.0,1.0,0.0,0.0,615.0
5.0,0.0,1.0,0.0,0.0,670.0
6.0,0.0,1.0,0.0,0.0,688.0
7.0,0.0,1.0,0.0,0.0,661.0
8.0,0.0,1.0,0.0,0.0,577.0
9.0,0.0,1.0,0.0,0.0,537.0
10.0,0.0,1.0,0.0,0.0,512.0
11.0,0.0,1.0,0.0,0.0,468.0
12.0,0.0,1.0,0.0,0.0,477.0
13.0,0.0,1.0,0.0,0.0,495.0
14.0,0.0,1.0,0.0,0.0,524.0
15.0,0.0,1.0,0.0,0.0,563.0
0.0,0.0,1.0,0.0,0.0,584.0
1.0,0.0,1.0,0.0,0.0,482.0
2.0,0.0,1.0,0.0,0.0,416.0
3.0,0.0,1.0,0.0,0.0,374.0
4.0,0.0,1.0,0.0,0.0,309.0
5.0,0.0,1.0,0.0,0.0,331.0
6.0,0.0,1.0,0.0,0.0,423.0
7.0,0.0,1.0,0.0,0.0,507.0
8.0,0.0,1.0,0.0,0.0,611.0
9.0,0.0,1.0,0.0,0.0,670.0
10.0,0.0,1.0,0.0,0.0,663.0
11.0,0.0,1.0,0.0,0.0,694.0
12.0,0.0,1.0,0.0,0.0,645.0
13.0,0.0,1.0,0.0,0.0,580.0
14.0,0.0,1.0,0.0,0.0,545.0
15.0,0.0,1.0,0.0,0.0,511.0
0.0,0.0,1.0,0.0,0.0,468.0
1.0,0.0,1.0,0.0,0.0,455.0
2.0,0.0,1.0,0.0,0.0,484.0
3.0,0.0,1.0,0.0,0.0,475.0
4.0,0.0,1.0,0.0,0.0,468.0
5.0,0.0,1.0,0.0,0.0,432.0
6.0,0.0,1.0,0.0,0.0,363.0
7.0,0.0,1.0,0.0,0.0,353.0
8.0,0.0,1.0,0.0,0.0,382.0
9.0,0.0,1.0,0.0,0.0,417.0
10.0,0.0,1.0,0.0,0.0,442.0
11.0,0.0,1.0,0.0,0.0,478.0
12.0,0.0,1.0,0.0,0.0,560.0
13.0,0.0,1.0,0.0,0.0,649.0
14.0,0.0,1.0,0.0,0.0,651.0
15.0,0.0,1.0,0.0,0.0,630.0
0.0,0.0,1.0,0.0,0.0,608.0
1.0,0.0,1.0,0.0,0.0,617.0
2.0,0.0,1.0,0.0,0.0,616.0
3.0,0.0,1.0,0.0,0.0,540.0
4.0,0.0,1.0,0.0,0.0,510.0
5.0,0.0,1.0,0.0,0.0,495.0
6.0,0.0,1.0,0.0,0.0,515.0
7.0,0.0,1.0,0.0,0.0,492.0
8.0,0.0,1.0,0.0,0.0,458.0
9.0,0.0,1.0,0.0,0.0,413.0
10.0,0.0,1.0,0.0,0.0,350.0
11.0,0.0,1.0,0.0,0.0,387.0
12.0,0.0,1.0,0.0,0.0,454.0
13.0,0.0,1.0,0.0,0.0,436.0
14.0,0.0,1.0,0.0,0.0,459.0
15.0,0.0,1.0,0.0,0.0,537.0
0.0,0.0,1.0,0.0,0.0,566.0
1.0,0.0,1.0,0.0,0.0,598.0
2.0,0.0,1.0,0.0,0.0,586.0
3.0,0.0,1.0,0.0,0.0,613.0
4.0,0.0,1.0,0.0,0.0,633.0
5.0,0.0,1.0,0.0,0.0,600.0
6.0,0.0,1.0,0.0,0.0,518.0
7.0,0.0,1.0,0.0,0.0,496.0
8.0,0.0,1.0,0.0,0.0,569.0
9.0,0.0,1.0,0.0,0.0,530.0
10.0,0.0,1.0,0.0,0.0,520.0
11.0,0.0,1.0,0.0,0.0,543.0
12.0,0.0,1.0,0.0,0.0,504.0
13.0,0.0,1.0,0.0,0.0,463.0
14.0,0.0,1.0,0.0,0.0,425.0
15.0,0.0,1.0,0.0,0.0,369.0
0.0,0.0,1.0,0.0,0.0,361.0
1.0,0.0,1.0,0.0,0.0,403.0
2.0,0.0,1.0,0.0,0.0,458.0
3.0,0.0,1.0,0.0,0.0,507.0
4.0,0.0,1.0,0.0,0.0,542.0
5.0,0.0,1.0,0.0,0.0,570.0
6.0,0.0,1.0,0.0,0.0,606.0
7.0,0.0,1.0,0.0,0.0,621.0
8.0,0.0,1.0,0.0,0.0,598.0
9.0,0.0,1.0,0.0,0.0,582.0
10.0,0.0,1.0,0.0,0.0,543.0
11.0,0.0,1.0,0.0,0.0,483.0
12.0,0.0,1.0,0.0,0.0,485.0
13.0,0.0,1.0,0.0,0.0,541.0
14.0,0.0,1.0,0.0,0.0,573.0
15.0,0.0,1.0,0.0,0.0,521.0
0.0,0.0,1.0,0.0,0.0,465.0
1.0,0.0,1.0,0.0,0.0,429.0
2.0,0.0,1.0,0.0,0.0,423.0
3.0,0.0,1.0,0.0,0.0,383.0
4.0,0.0,1.0,0.0,0.0,376.0
5.0,0.0,1.0,0.0,0.0,379.0
6.0,0.0,1.0,0.0,0.0,401.0
7.0,0.0,1.0,0.0,0.0,454.0
8.0,0.0,1.0,0.0,0.0,547.0
9.0,0.0,1.0,0.0,0.0,686.0
10.0,0.0,1.0,0.0,0.0,676.0
11.0,0.0,1.0,0.0,0.0,602.0
12.0,0.0,1.0,0.0,0.0,548.0
13.0,0.0,1.0,0.0,0.0,534.0
14.0,0.0,1.0,0.0,0.0,601.0
15.0,0.0,1.0,0.0,0.0,603.0
0.0,0.0,1.0,0.0,0.0,596.0
1.0,0.0,1.0,0.0,0.0,579.0
2.0,0.0,1.0,0.0,0.0,522.0
3.0,0.0,1.0,0.0,0.0,502.0
4.0,0.0,1.0,0.0,0.0,507.0
5.0,0.0,1.0,0.0,0.0,457.0
6.0,0.0,1.0,0.0,0.0,388.0
7.0,0.0,1.0,0.0,0.0,345.0
8.0,0.0,1.0,0.0,0.0,354.0
9.0,0.0,1.0,0.0,0.0,420.0
10.0,0.0,1.0,0.0,0.0,456.0
11.0,0.0,1.0,0.0,0.0,443.0
12.0,0.0,1.0,0.0,0.0,433.0
13.0,0.0,1.0,0.0,0.0,498.0
14.0,0.0,1.0,0.0,0.0,589.0
15.0,0.0,1.0,0.0,0.0,667.0
0.0,0.0,1.0,0.0,0.0,663.0
1.0,0.0,1.0,0.0,0.0,640.0
2.0,0.0,1.0,0.0,0.0,606.0
3.0,0.0,1.0,0.0,0.0,547.0
4.0,0.0,1.0,0.0,0.0,460.0
5.0,0.0,1.0,0.0,0.0,465.0
6.0,0.0,1.0,0.0,0.0,552.0
7.0,0.0,1.0,0.0,0.0,658.0
8.0,0.0,1.0,0.0,0.0,639.0
9.0,0.0,1.0,0.0,0.0,565.0
10.0,0.0,1.0,0.0,0.0,439.0
11.0,0.0,1.0,0.0,0.0,356.0
12.0,0.0,1.0,0.0,0.0,327.0
13.0,0.0,1.0,0.0,0.0,340.0
14.0,0.0,1.0,0.0,0.0,396.0
15.0,0.0,1.0,0.0,0.0,452.0
0.0,0.0,1.0,0.0,0.0,510.0
1.0,0.0,1.0,0.0,0.0,561.0
2.0,0.0,1.0,0.0,0.0,616.0
3.0,0.0,1.0,0.0,0.0,609.0
4.0,0.0,1.0,0.0,0.0,591.0
5.0,0.0,1.0,0.0,0.0,579.0
6.0,0.0,1.0,0.0,0.0,523.0
7.0,0.0,1.0,0.0,0.0,595.0
8.0,0.0,1.0,0.0,0.0,585.0
9.0,0.0,1.0,0.0,0.0,509.0
10.0,0.0,1.0,0.0,0.0,477.0
11.0,0.0,1.0,0.0,0.0,485.0
12.0,0.0,1.0,0.0,0.0,463.0
13.0,0.0,1.0,0.0,0.0,415.0
14.0,0.0,1.0,0.0,0.0,420.0
15.0,0.0,1.0,0.0,0.0,387.0
0.0,0.0,1.0,0.0,0.0,424.0
1.0,0.0,1.0,0.0,0.0,493.0
2.0,0.0,1.0,0.0,0.0,515.0
3.0,0.0,1.0,0.0,0.0,499.0
4.0,0.0,1.0,0.0,0.0,551.0
5.0,0.0,1.0,0.0,0.0,626.0
6.0,0.0,1.0,0.0,0.0,638.0
7.0,0.0,1.0,0.0,0.0,625.0
8.0,0.0,1.0,0.0,0.0,646.0
9.0,0.0,1.0,0.0,0.0,600.0
10.0,0.0,1.0,0.0,0.0,527.0
11.0,0.0,1.0,0.0,0.0,476.0
12.0,0.0,1.0,0.0,0.0,424.0
13.0,0.0,1.0,0.0,0.0,433.0
14.0,0.0,1.0,0.0,0.0,457.0
15.0,0.0,1.0,0.0,0.0,483.0
0.0,0.0,1.0,0.0,0.0,454.0
1.0,0.0,1.0,0.0,0.0,369.0
2.0,0.0,1.0,0.0,0.0,369.0
3.0,0.0,1.0,0.0,0.0,371.0
4.0,0.0,1.0,0.0,0.0,411.0
5.0,0.0,1.0,0.0,0.0,429.0
6.0,0.0,1.0,0.0,0.0,419.0
7.0,0.0,1.0,0.0,0.0,460.0
8.0,0.0,1.0,0.0,0.0,535.0
9.0,0.0,1.0,0.0,0.0,594.0
10.0,0.0,1.0,0.0,0.0,651.0
11.0,0.0,1.0,0.0,0.0,701.0
12.0,0.0,1.0,0.0,0.0,706.0
13.0,0.0,1.0,0.0,0.0,722.0
14.0,0.0,1.0,0.0,0.0,734.0
15.0,0.0,1.0,0.0,0.0,582.0
0.0,0.0,1.0,0.0,0.0,531.0
1.0,0.0,1.0,0.0,0.0,521.0
2.0,0.0,1.0,0.0,0.0,513.0
3.0,0.0,1.0,0.0,0.0,454.0
4.0,0.0,1.0,0.0,0.0,415.0
5.0,0.0,1.0,0.0,0.0,354.0
6.0,0.0,1.0,0.0,0.0,343.0
7.0,0.0,1.0,0.0,0.0,376.0
8.0,0.0,1.0,0.0,0.0,348.0
9.0,0.0,1.0,0.0,0.0,312.0
10.0,0.0,1.0,0.0,0.0,422.0
11.0,0.0,1.0,0.0,0.0,492.0
12.0,0.0,1.0,0.0,0.0,495.0
13.0,0.0,1.0,0.0,0.0,531.0
14.0,0.0,1.0,0.0,0.0,578.0
15.0,0.0,1.0,0.0,0.0,617.0
0.0,0.0,1.0,0.0,0.0,598.0
1.0,0.0,1.0,0.0,0.0,635.0
2.0,0.0,1.0,0.0,0.0,696.0
3.0,0.0,1.0,0.0,0.0,705.0
4.0,0.0,1.0,0.0,0.0,618.0
5.0,0.0,1.0,0.0,0.0,556.0
6.0,0.0,1.0,0.0,0.0,538.0
7.0,0.0,1.0,0.0,0.0,465.0
8.0,0.0,1.0,0.0,0.0,391.0
9.0,0.0,1.0,0.0,0.0,463.0
10.0,0.0,1.0,0.0,0.0,466.0
11.0,0.0,1.0,0.0,0.0,387.0
12.0,0.0,1.0,0.0,0.0,392.0
13.0,0.0,1.0,0.0,0.0,429.0
14.0,0.0,1.0,0.0,0.0,474.0
15.0,0.0,1.0,0.0,0.0,519.0
0.0,0.0,1.0,0.0,0.0,570.0
1.0,0.0,1.0,0.0,0.0,591.0
2.0,0.0,1.0,0.0,0.0,606.0
3.0,0.0,1.0,0.0,0.0,669.0
4.0,0.0,1.0,0.0,0.0,728.0
5.0,0.0,1.0,0.0,0.0,676.0
6.0,0.0,1.0,0.0,0.0,588.0
7.0,0.0,1.0,0.0,0.0,510.0
8.0,0.0,1.0,0.0,0.0,455.0
9.0,0.0,1.0,0.0,0.0,428.0
10.0,0.0,1.0,0.0,0.0,440.0
11.0,0.0,1.0,0.0,0.0,476.0
12.0,0.0,1.0,0.0,0.0,414.0
13.0,0.0,1.0,0.0,0.0,430.0
14.0,0.0,1.0,0.0,0.0,436.0
15.0,0.0,1.0,0.0,0.0,379.0
0.0,0.0,1.0,0.0,0.0,396.0
1.0,0.0,1.0,0.0,0.0,453.0
2.0,0.0,1.0,0.0,0.0,478.0
3.0,0.0,1.0,0.0,0.0,525.0
4.0,0.0,1.0,0.0,0.0,569.0
5.0,0.0,1.0,0.0,0.0,579.0
6.0,0.0,1.0,0.0,0.0,590.0
7.0,0.0,1.0,0.0,0.0,562.0
8.0,0.0,1.0,0.0,0.0,560.0
9.0,0.0,1.0,0.0,0.0,526.0
10.0,0.0,1.0,0.0,0.0,508.0
11.0,0.0,1.0,0.0,0.0,530.0
12.0,0.0,1.0,0.0,0.0,475.0
13.0,0.0,1.0,0.0,0.0,456.0
14.0,0.0,1.0,0.0,0.0,531.0
15.0,0.0,1.0,0.0,0.0,550.0
0.0,0.0,1.0,0.0,0.0,515.0
1.0,0.0,1.0,0.0,0.0,465.0
2.0,0.0,1.0,0.0,0.0,441.0
3.0,0.0,1.0,0.0,0.0,434.0
4.0,0.0,1.0,0.0,0.0,454.0
5.0,0.0,1.0,0.0,0.0,499.0
6.0,0.0,1.0,0.0,0.0,508.0
7.0,0.0,1.0,0.0,0.0,543.0
8.0,0.0,1.0,0.0,0.0,580.0
9.0,0.0,1.0,0.0,0.0,622.0
10.0,0.0,1.0,0.0,0.0,617.0
11.0,0.0,1.0,0.0,0.0,566.0
12.0,0.0,1.0,0.0,0.0,518.0
13.0,0.0,1.0,0.0,0.0,499.0
14.0,0.0,1.0,0.0,0.0,463.0
15.0,0.0,1.0,0.0,0.0,445.0
0.0,0.0,1.0,0.0,0.0,497.0
1.0,0.0,1.0,0.0,0.0,557.0
2.0,0.0,1.0,0.0,0.0,628.0
3.0,0.0,1.0,0.0,0.0,606.0
4.0,0.0,1.0,0.0,0.0,533.0
5.0,0.0,1.0,0.0,0.0,431.0
6.0,0.0,1.0,0.0,0.0,336.0
7.0,0.0,1.0,0.0,0.0,315.0
8.0,0.0,1.0,0.0,0.0,360.0
9.0,0.0,1.0,0.0,0.0,398.0
10.0,0.0,1.0,0.0,0.0,465.0
11.0,0.0,1.0,0.0,0.0,485.0
12.0,0.0,1.0,0.0,0.0,536.0
13.0,0.0,1.0,0.0,0.0,647.0
14.0,0.0,1.0,0.0,0.0,726.0
15.0,0.0,1.0,0.0,0.0,668.0
0.0,0.0,1.0,0.0,0.0,554.0
1.0,0.0,1.0,0.0,0.0,498.0
2.0,0.0,1.0,0.0,0.0,521.0
3.0,0.0,1.0,0.0,0.0,539.0
4.0,0.0,1.0,0.0,0.0,591.0
5.0,0.0,1.0,0.0,0.0,629.0
6.0,0.0,1.0,0.0,0.0,603.0
7.0,0.0,1.0,0.0,0.0,533.0
8.0,0.0,1.0,0.0,0.0,432.0
9.0,0.0,1.0,0.0,0.0,355.0
10.0,0.0,1.0,0.0,0.0,260.0
11.0,0.0,1.0,0.0,0.0,241.0
12.0,0.0,1.0,0.0,0.0,278.0
13.0,0.0,1.0,0.0,0.0,316.0
14.0,0.0,1.0,0.0,0.0,380.0
15.0,0.0,1.0,0.0,0.0,493.0
0.0,0.0,1.0,0.0,0.0,725.0
1.0,0.0,1.0,0.0,0.0,812.0
2.0,0.0,1.0,0.0,0.0,829.0
3.0,0.0,1.0,0.0,0.0,801.0
4.0,0.0,1.0,0.0,0.0,700.0
5.0,0.0,1.0,0.0,0.0,585.0
6.0,0.0,1.0,0.0,0.0,495.0
7.0,0.0,1.0,0.0,0.0,476.0
8.0,0.0,1.0,0.0,0.0,505.0
9.0,0.0,1.0,0.0,0.0,519.0
10.0,0.0,1.0,0.0,0.0,528.0
11.0,0.0,1.0,0.0,0.0,488.0
12.0,0.0,1.0,0.0,0.0,415.0
13.0,0.0,1.0,0.0,0.0,312.0
14.0,0.0,1.0,0.0,0.0,281.0
15.0,0.0,1.0,0.0,0.0,299.0
0.0,0.0,1.0,0.0,0.0,331.0
1.0,0.0,1.0,0.0,0.0,334.0
2.0,0.0,1.0,0.0,0.0,463.0
3.0,0.0,1.0,0.0,0.0,595.0
4.0,0.0,1.0,0.0,0.0,651.0
5.0,0.0,1.0,0.0,0.0,728.0
6.0,0.0,1.0,0.0,0.0,739.0
7.0,0.0,1.0,0.0,0.0,670.0
8.0,0.0,1.0,0.0,0.0,615.0
9.0,0.0,1.0,0.0,0.0,624.0
10.0,0.0,1.0,0.0,0.0,511.0
11.0,0.0,1.0,0.0,0.0,427.0
12.0,0.0,1.0,0.0,0.0,483.0
13.0,0.0,1.0,0.0,0.0,553.0
14.0,0.0,1.0,0.0,0.0,523.0
15.0,0.0,1.0,0.0,0.0,507.0
0.0,0.0,1.0,0.0,0.0,484.0
1.0,0.0,1.0,0.0,0.0,430.0
2.0,0.0,1.0,0.0,0.0,377.0
3.0,0.0,1.0,0.0,0.0,356.0
4.0,0.0,1.0,0.0,0.0,361.0
5.0,0.0,1.0,0.0,0.0,384.0
6.0,0.0,1.0,0.0,0.0,403.0
7.0,0.0,1.0,0.0,0.0,472.0
8.0,0.0,1.0,0.0,0.0,562.0
9.0,0.0,1.0,0.0,0.0,591.0
10.0,0.0,1.0,0.0,0.0,676.0
11.0,0.0,1.0,0.0,0.0,680.0
12.0,0.0,1.0,0.0,0.0,620.0
13.0,0.0,1.0,0.0,0.0,612.0
14.0,0.0,1.0,0.0,0.0,654.0
15.0,0.0,1.0,0.0,0.0,659.0
0.0,0.0,1.0,0.0,0.0,560.0
1.0,0.0,1.0,0.0,0.0,492.0
2.0,0.0,1.0,0.0,0.0,477.0
3.0,0.0,1.0,0.0,0.0,458.0
4.0,0.0,1.0,0.0,0.0,395.0
5.0,0.0,1.0,0.0,0.0,334.0
6.0,0.0,1.0,0.0,0.0,312.0
7.0,0.0,1.0,0.0,0.0,342.0
8.0,0.0,1.0,0.0,0.0,369.0
9.0,0.0,1.0,0.0,0.0,423.0
10.0,0.0,1.0,0.0,0.0,534.0
11.0,0.0,1.0,0.0,0.0,646.0
12.0,0.0,1.0,0.0,0.0,704.0
13.0,0.0,1.0,0.0,0.0,710.0
14.0,0.0,1.0,0.0,0.0,681.0
15.0,0.0,1.0,0.0,0.0,596.0
0.0,0.0,1.0,0.0,0.0,545.0
1.0,0.0,1.0,0.0,0.0,535.0
2.0,0.0,1.0,0.0,0.0,523.0
3.0,0.0,1.0,0.0,0.0,470.0
4.0,0.0,1.0,0.0,0.0,417.0
5.0,0.0,1.0,0.0,0.0,408.0
6.0,0.0,1.0,0.0,0.0,450.0
7.0,0.0,1.0,0.0,0.0,502.0
8.0,0.0,1.0,0.0,0.0,496.0
9.0,0.0,1.0,0.0,0.0,486.0
10.0,0.0,1.0,0.0,0.0,453.0
11.0,0.0,1.0,0.0,0.0,453.0
12.0,0.0,1.0,0.0,0.0,485.0
13.0,0.0,1.0,0.0,0.0,433.0
14.0,0.0,1.0,0.0,0.0,415.0
15.0,0.0,1.0,0.0,0.0,453.0
0.0,0.0,1.0,0.0,0.0,523.0
1.0,0.0,1.0,0.0,0.0,587.0
2.0,0.0,1.0,0.0,0.0,590.0
3.0,0.0,1.0,0.0,0.0,598.0
4.0,0.0,1.0,0.0,0.0,658.0
5.0,0.0,1.0,0.0,0.0,640.0
6.0,0.0,1.0,0.0,0.0,578.0
7.0,0.0,1.0,0.0,0.0,555.0
8.0,0.0,1.0,0.0,0.0,529.0
9.0,0.0,1.0,0.0,0.0,471.0
10.0,0.0,1.0,0.0,0.0,454.0
11.0,0.0,1.0,0.0,0.0,517.0
12.0,0.0,1.0,0.0,0.0,527.0
13.0,0.0,1.0,0.0,0.0,478.0
14.0,0.0,1.0,0.0,0.0,457.0
15.0,0.0,1.0,0.0,0.0,448.0
0.0,0.0,1.0,0.0,0.0,391.0
1.0,0.0,1.0,0.0,0.0,366.0
2.0,0.0,1.0,0.0,0.0,406.0
3.0,0.0,1.0,0.0,0.0,443.0
4.0,0.0,1.0,0.0,0.0,507.0
5.0,0.0,1.0,0.0,0.0,564.0
6.0,0.0,1.0,0.0,0.0,543.0
7.0,0.0,1.0,0.0,0.0,524.0
8.0,0.0,1.0,0.0,0.0,573.0
9.0,0.0,1.0,0.0,0.0,585.0
10.0,0.0,1.0,0.0,0.0,632.0
11.0,0.0,1.0,0.0,0.0,679.0
12.0,0.0,1.0,0.0,0.0,624.0
13.0,0.0,1.0,0.0,0.0,622.0
14.0,0.0,1.0,0.0,0.0,557.0
15.0,0.0,1.0,0.0,0.0,542.0
0.0,0.0,1.0,0.0,0.0,525.0
1.0,0.0,1.0,0.0,0.0,406.0
2.0,0.0,1.0,0.0,0.0,346.0
3.0,0.0,1.0,0.0,0.0,338.0
4.0,0.0,1.0,0.0,0.0,302.0
5.0,0.0,1.0,0.0,0.0,253.0
6.0,0.0,1.0,0.0,0.0,235.0
7.0,0.0,1.0,0.0,0.0,324.0
8.0,0.0,1.0,0.0,0.0,444.0
9.0,0.0,1.0,0.0,0.0,553.0
10.0,0.0,1.0,0.0,0.0,711.0
11.0,0.0,1.0,0.0,0.0,889.0
12.0,0.0,1.0,0.0,0.0,955.0
13.0,0.0,1.0,0.0,0.0,876.0
14.0,0.0,1.0,0.0,0.0,693.0
15.0,0.0,1.0,0.0,0.0,559.0
0.0,0.0,1.0,0.0,0.0,465.0
1.0,0.0,1.0,0.0,0.0,406.0
2.0,0.0,1.0,0.0,0.0,376.0
3.0,0.0,1.0,0.0,0.0,400.0
4.0,0.0,1.0,0.0,0.0,372.0
5.0,0.0,1.0,0.0,0.0,380.0
6.0,0.0,1.0,0.0,0.0,399.0
7.0,0.0,1.0,0.0,0.0,352.0
8.0,0.0,1.0,0.0,0.0,320.0
9.0,0.0,1.0,0.0,0.0,362.0
10.0,0.0,1.0,0.0,0.0,451.0
11.0,0.0,1.0,0.0,0.0,571.0
12.0,0.0,1.0,0.0,0.0,627.0
13.0,0.0,1.0,0.0,0.0,669.0
14.0,0.0,1.0,0.0,0.0,758.0
15.0,0.0,1.0,0.0,0.0,765.0
0.0,0.0,1.0,0.0,0.0,659.0
1.0,0.0,1.0,0.0,0.0,598.0
2.0,0.0,1.0,0.0,0.0,567.0
3.0,0.0,1.0,0.0,0.0,504.0
4.0,0.0,1.0,0.0,0.0,442.0
5.0,0.0,1.0,0.0,0.0,450.0
6.0,0.0,1.0,0.0,0.0,454.0
7.0,0.0,1.0,0.0,0.0,469.0
8.0,0.0,1.0,0.0,0.0,435.0
9.0,0.0,1.0,0.0,0.0,368.0
10.0,0.0,1.0,0.0,0.0,307.0
11.0,0.0,1.0,0.0,0.0,243.0
12.0,0.0,1.0,0.0,0.0,235.0
13.0,0.0,1.0,0.0,0.0,356.0
14.0,0.0,1.0,0.0,0.0,515.0
15.0,0.0,1.0,0.0,0.0,589.0
0.0,0.0,1.0,0.0,0.0,676.0
1.0,0.0,1.0,0.0,0.0,839.0
2.0,0.0,1.0,0.0,0.0,866.0
3.0,0.0,1.0,0.0,0.0,739.0
4.0,0.0,1.0,0.0,0.0,593.0
5.0,0.0,1.0,0.0,0.0,488.0
6.0,0.0,1.0,0.0,0.0,460.0
7.0,0.0,1.0,0.0,0.0,501.0
8.0,0.0,1.0,0.0,0.0,488.0
9.0,0.0,1.0,0.0,0.0,561.0
10.0,0.0,1.0,0.0,0.0,656.0
11.0,0.0,1.0,0.0,0.0,675.0
12.0,0.0,1.0,0.0,0.0,621.0
13.0,0.0,1.0,0.0,0.0,486.0
14.0,0.0,1.0,0.0,0.0,355.0
15.0,0.0,1.0,0.0,0.0,294.0
0.0,0.0,1.0,0.0,0.0,283.0
1.0,0.0,1.0,0.0,0.0,289.0
2.0,0.0,1.0,0.0,0.0,387.0
3.0,0.0,1.0,0.0,0.0,498.0
4.0,0.0,1.0,0.0,0.0,606.0
5.0,0.0,1.0,0.0,0.0,634.0
6.0,0.0,1.0,0.0,0.0,636.0
7.0,0.0,1.0,0.0,0.0,589.0
8.0,0.0,1.0,0.0,0.0,575.0
9.0,0.0,1.0,0.0,0.0,523.0
10.0,0.0,1.0,0.0,0.0,483.0
11.0,0.0,1.0,0.0,0.0,463.0
12.0,0.0,1.0,0.0,0.0,465.0
13.0,0.0,1.0,0.0,0.0,515.0
14.0,0.0,1.0,0.0,0.0,563.0
15.0,0.0,1.0,0.0,0.0,468.0
0.0,0.0,1.0,0.0,0.0,385.0
1.0,0.0,1.0,0.0,0.0,326.0
2.0,0.0,1.0,0.0,0.0,272.0
3.0,0.0,1.0,0.0,0.0,303.0
4.0,0.0,1.0,0.0,0.0,348.0
5.0,0.0,1.0,0.0,0.0,447.0
6.0,0.0,1.0,0.0,0.0,562.0
7.0,0.0,1.0,0.0,0.0,746.0
8.0,0.0,1.0,0.0,0.0,906.0
9.0,0.0,1.0,0.0,0.0,860.0
10.0,0.0,1.0,0.0,0.0,710.0
11.0,0.0,1.0,0.0,0.0,557.0
12.0,0.0,1.0,0.0,0.0,493.0
13.0,0.0,1.0,0.0,0.0,453.0
14.0,0.0,1.0,0.0,0.0,423.0
15.0,0.0,1.0,0.0,0.0,514.0
0.0,0.0,1.0,0.0,0.0,535.0
1.0,0.0,1.0,0.0,0.0,511.0
2.0,0.0,1.0,0.0,0.0,522.0
3.0,0.0,1.0,0.0,0.0,556.0
4.0,0.0,1.0,0.0,0.0,481.0
5.0,0.0,1.0,0.0,0.0,409.0
6.0,0.0,1.0,0.0,0.0,373.0
7.0,0.0,1.0,0.0,0.0,287.0
8.0,0.0,1.0,0.0,0.0,208.0
9.0,0.0,1.0,0.0,0.0,299.0
10.0,0.0,1.0,0.0,0.0,506.0
11.0,0.0,1.0,0.0,0.0,745.0
12.0,0.0,1.0,0.0,0.0,809.0
13.0,0.0,1.0,0.0,0.0,823.0
14.0,0.0,1.0,0.0,0.0,714.0
15.0,0.0,1.0,0.0,0.0,563.0
0.0,0.0,1.0,0.0,0.0,494.0
1.0,0.0,1.0,0.0,0.0,444.0
2.0,0.0,1.0,0.0,0.0,384.0
3.0,0.0,1.0,0.0,0.0,404.0
4.0,0.0,1.0,0.0,0.0,442.0
5.0,0.0,1.0,0.0,0.0,466.0
6.0,0.0,1.0,0.0,0.0,549.0
7.0,0.0,1.0,0.0,0.0,563.0
8.0,0.0,1.0,0.0,0.0,508.0
9.0,0.0,1.0,0.0,0.0,413.0
10.0,0.0,1.0,0.0,0.0,449.0
11.0,0.0,1.0,0.0,0.0,538.0
12.0,0.0,1.0,0.0,0.0,490.0
13.0,0.0,1.0,0.0,0.0,454.0
14.0,0.0,1.0,0.0,0.0,464.0
15.0,0.0,1.0,0.0,0.0,491.0
0.0,0.0,1.0,0.0,0.0,529.0
1.0,0.0,1.0,0.0,0.0,555.0
2.0,0.0,1.0,0.0,0.0,599.0
3.0,0.0,1.0,0.0,0.0,598.0
4.0,0.0,1.0,0.0,0.0,555.0
5.0,0.0,1.0,0.0,0.0,536.0
6.0,0.0,1.0,0.0,0.0,511.0
7.0,0.0,1.0,0.0,0.0,479.0
8.0,0.0,1.0,0.0,0.0,489.0
9.0,0.0,1.0,0.0,0.0,524.0
10.0,0.0,1.0,0.0,0.0,633.0
11.0,0.0,1.0,0.0,0.0,651.0
12.0,0.0,1.0,0.0,0.0,571.0
13.0,0.0,1.0,0.0,0.0,474.0
14.0,0.0,1.0,0.0,0.0,361.0
15.0,0.0,1.0,0.0,0.0,243.0
0.0,0.0,1.0,0.0,0.0,267.0
1.0,0.0,1.0,0.0,0.0,318.0
2.0,0.0,1.0,0.0,0.0,369.0
3.0,0.0,1.0,0.0,0.0,448.0
4.0,0.0,1.0,0.0,0.0,577.0
5.0,0.0,1.0,0.0,0.0,788.0
6.0,0.0,1.0,0.0,0.0,829.0
7.0,0.0,1.0,0.0,0.0,741.0
8.0,0.0,1.0,0.0,0.0,590.0
9.0,0.0,1.0,0.0,0.0,493.0
10.0,0.0,1.0,0.0,0.0,474.0
11.0,0.0,1.0,0.0,0.0,479.0
12.0,0.0,1.0,0.0,0.0,463.0
13.0,0.0,1.0,0.0,0.0,413.0
14.0,0.0,1.0,0.0,0.0,465.0
15.0,0.0,1.0,0.0,0.0,639.0
0.0,0.0,1.0,0.0,0.0,705.0
1.0,0.0,1.0,0.0,0.0,628.0
2.0,0.0,1.0,0.0,0.0,464.0
3.0,0.0,1.0,0.0,0.0,263.0
4.0,0.0,1.0,0.0,0.0,162.0
5.0,0.0,1.0,0.0,0.0,155.0
6.0,0.0,1.0,0.0,0.0,236.0
7.0,0.0,1.0,0.0,0.0,370.0
8.0,0.0,1.0,0.0,0.0,611.0
9.0,0.0,1.0,0.0,0.0,969.0
10.0,0.0,1.0,0.0,0.0,1022.0
11.0,0.0,1.0,0.0,0.0,860.0
12.0,0.0,1.0,0.0,0.0,722.0
13.0,0.0,1.0,0.0,0.0,545.0
14.0,0.0,1.0,0.0,0.0,441.0
15.0,0.0,1.0,0.0,0.0,417.0
0.0,0.0,1.0,0.0,0.0,410.0
1.0,0.0,1.0,0.0,0.0,420.0
2.0,0.0,1.0,0.0,0.0,420.0
3.0,0.0,1.0,0.0,0.0,438.0
4.0,0.0,1.0,0.0,0.0,511.0
5.0,0.0,1.0,0.0,0.0,517.0
6.0,0.0,1.0,0.0,0.0,408.0
7.0,0.0,1.0,0.0,0.0,319.0
8.0,0.0,1.0,0.0,0.0,305.0
9.0,0.0,1.0,0.0,0.0,322.0
10.0,0.0,1.0,0.0,0.0,396.0
11.0,0.0,1.0,0.0,0.0,476.0
12.0,0.0,1.0,0.0,0.0,530.0
13.0,0.0,1.0,0.0,0.0,593.0
14.0,0.0,1.0,0.0,0.0,657.0
15.0,0.0,1.0,0.0,0.0,670.0
0.0,0.0,1.0,0.0,0.0,700.0
1.0,0.0,1.0,0.0,0.0,713.0
2.0,0.0,1.0,0.0,0.0,574.0
3.0,0.0,1.0,0.0,0.0,475.0
4.0,0.0,1.0,0.0,0.0,412.0
5.0,0.0,1.0,0.0,0.0,460.0
6.0,0.0,1.0,0.0,0.0,489.0
7.0,0.0,1.0,0.0,0.0,508.0
8.0,0.0,1.0,0.0,0.0,601.0
9.0,0.0,1.0,0.0,0.0,554.0
10.0,0.0,1.0,0.0,0.0,513.0
11.0,0.0,1.0,0.0,0.0,467.0
12.0,0.0,1.0,0.0,0.0,459.0
13.0,0.0,1.0,0.0,0.0,431.0
14.0,0.0,1.0,0.0,0.0,416.0
15.0,0.0,1.0,0.0,0.0,462.0
0.0,0.0,1.0,0.0,0.0,531.0
1.0,0.0,1.0,0.0,0.0,590.0
2.0,0.0,1.0,0.0,0.0,618.0
3.0,0.0,1.0,0.0,0.0,591.0
4.0,0.0,1.0,0.0,0.0,532.0
5.0,0.0,1.0,0.0,0.0,494.0
6.0,0.0,1.0,0.0,0.0,465.0
7.0,0.0,1.0,0.0,0.0,452.0
8.0,0.0,1.0,0.0,0.0,506.0
9.0,0.0,1.0,0.0,0.0,596.0
10.0,0.0,1.0,0.0,0.0,661.0
11.0,0.0,1.0,0.0,0.0,583.0
12.0,0.0,1.0,0.0,0.0,539.0
13.0,0.0,1.0,0.0,0.0,457.0
14.0,0.0,1.0,0.0,0.0,331.0
15.0,0.0,1.0,0.0,0.0,260.0
0.0,0.0,1.0,0.0,0.0,223.0
1.0,0.0,1.0,0.0,0.0,262.0
2.0,0.0,1.0,0.0,0.0,347.0
3.0,0.0,1.0,0.0,0.0,556.0
4.0,0.0,1.0,0.0,0.0,701.0
5.0,0.0,1.0,0.0,0.0,811.0
6.0,0.0,1.0,0.0,0.0,832.0
7.0,0.0,1.0,0.0,0.0,768.0
8.0,0.0,1.0,0.0,0.0,639.0
9.0,0.0,1.0,0.0,0.0,598.0
10.0,0.0,1.0,0.0,0.0,652.0
11.0,0.0,1.0,0.0,0.0,584.0
12.0,0.0,1.0,0.0,0.0,475.0
13.0,0.0,1.0,0.0,0.0,438.0
14.0,0.0,1.0,0.0,0.0,376.0
15.0,0.0,1.0,0.0,0.0,374.0
0.0,0.0,1.0,0.0,0.0,391.0
1.0,0.0,1.0,0.0,0.0,343.0
2.0,0.0,1.0,0.0,0.0,323.0
3.0,0.0,1.0,0.0,0.0,356.0
4.0,0.0,1.0,0.0,0.0,474.0
5.0,0.0,1.0,0.0,0.0,492.0
6.0,0.0,1.0,0.0,0.0,476.0
7.0,0.0,1.0,0.0,0.0,511.0
8.0,0.0,1.0,0.0,0.0,572.0
9.0,0.0,1.0,0.0,0.0,689.0
10.0,0.0,1.0,0.0,0.0,707.0
11.0,0.0,1.0,0.0,0.0,661.0
12.0,0.0,1.0,0.0,0.0,612.0
13.0,0.0,1.0,0.0,0.0,593.0
14.0,0.0,1.0,0.0,0.0,566.0
15.0,0.0,1.0,0.0,0.0,550.0
0.0,0.0,1.0,0.0,0.0,519.0
1.0,0.0,1.0,0.0,0.0,388.0
2.0,0.0,1.0,0.0,0.0,287.0
3.0,0.0,1.0,0.0,0.0,288.0
4.0,0.0,1.0,0.0,0.0,347.0
5.0,0.0,1.0,0.0,0.0,398.0
6.0,0.0,1.0,0.0,0.0,406.0
7.0,0.0,1.0,0.0,0.0,546.0
8.0,0.0,1.0,0.0,0.0,694.0
9.0,0.0,1.0,0.0,0.0,780.0
10.0,0.0,1.0,0.0,0.0,698.0
11.0,0.0,1.0,0.0,0.0,580.0
12.0,0.0,1.0,0.0,0.0,535.0
13.0,0.0,1.0,0.0,0.0,514.0
14.0,0.0,1.0,0.0,0.0,530.0
15.0,0.0,1.0,0.0,0.0,572.0
0.0,0.0,1.0,0.0,0.0,540.0
1.0,0.0,1.0,0.0,0.0,487.0
2.0,0.0,1.0,0.0,0.0,468.0
3.0,0.0,1.0,0.0,0.0,457.0
4.0,0.0,1.0,0.0,0.0,495.0
5.0,0.0,1.0,0.0,0.0,513.0
6.0,0.0,1.0,0.0,0.0,504.0
7.0,0.0,1.0,0.0,0.0,479.0
8.0,0.0,1.0,0.0,0.0,381.0
9.0,0.0,1.0,0.0,0.0,311.0
10.0,0.0,1.0,0.0,0.0,308.0
11.0,0.0,1.0,0.0,0.0,320.0
12.0,0.0,1.0,0.0,0.0,295.0
13.0,0.0,1.0,0.0,0.0,429.0
14.0,0.0,1.0,0.0,0.0,564.0
15.0,0.0,1.0,0.0,0.0,638.0
0.0,0.0,1.0,0.0,0.0,702.0
1.0,0.0,1.0,0.0,0.0,760.0
2.0,0.0,1.0,0.0,0.0,736.0
3.0,0.0,1.0,0.0,0.0,662.0
4.0,0.0,1.0,0.0,0.0,600.0
5.0,0.0,1.0,0.0,0.0,532.0
6.0,0.0,1.0,0.0,0.0,543.0
7.0,0.0,1.0,0.0,0.0,584.0
8.0,0.0,1.0,0.0,0.0,594.0
9.0,0.0,1.0,0.0,0.0,521.0
10.0,0.0,1.0,0.0,0.0,423.0
11.0,0.0,1.0,0.0,0.0,399.0
12.0,0.0,1.0,0.0,0.0,403.0
13.0,0.0,1.0,0.0,0.0,371.0
14.0,0.0,1.0,0.0,0.0,376.0
15.0,0.0,1.0,0.0,0.0,442.0
0.0,0.0,1.0,0.0,0.0,462.0
1.0,0.0,1.0,0.0,0.0,449.0
2.0,0.0,1.0,0.0,0.0,493.0
3.0,0.0,1.0,0.0,0.0,538.0
4.0,0.0,1.0,0.0,0.0,571.0
5.0,0.0,1.0,0.0,0.0,581.0
6.0,0.0,1.0,0.0,0.0,609.0
7.0,0.0,1.0,0.0,0.0,587.0
8.0,0.0,1.0,0.0,0.0,582.0
9.0,0.0,1.0,0.0,0.0,529.0
10.0,0.0,1.0,0.0,0.0,460.0
11.0,0.0,1.0,0.0,0.0,440.0
12.0,0.0,1.0,0.0,0.0,465.0
13.0,0.0,1.0,0.0,0.0,501.0
14.0,0.0,1.0,0.0,0.0,553.0
15.0,0.0,1.0,0.0,0.0,679.0
0.0,0.0,1.0,0.0,0.0,691.0
1.0,0.0,1.0,0.0,0.0,575.0
2.0,0.0,1.0,0.0,0.0,430.0
3.0,0.0,1.0,0.0,0.0,339.0
4.0,0.0,1.0,0.0,0.0,331.0
5.0,0.0,1.0,0.0,0.0,336.0
6.0,0.0,1.0,0.0,0.0,351.0
7.0,0.0,1.0,0.0,0.0,427.0
8.0,0.0,1.0,0.0,0.0,507.0
9.0,0.0,1.0,0.0,0.0,560.0
10.0,0.0,1.0,0.0,0.0,533.0
11.0,0.0,1.0,0.0,0.0,553.0
12.0,0.0,1.0,0.0,0.0,580.0
13.0,0.0,1.0,0.0,0.0,623.0
14.0,0.0,1.0,0.0,0.0,703.0
15.0,0.0,1.0,0.0,0.0,734.0
0.0,0.0,1.0,0.0,0.0,697.0
1.0,0.0,1.0,0.0,0.0,575.0
2.0,0.0,1.0,0.0,0.0,462.0
3.0,0.0,1.0,0.0,0.0,446.0
4.0,0.0,1.0,0.0,0.0,484.0
5.0,0.0,1.0,0.0,0.0,504.0
6.0,0.0,1.0,0.0,0.0,454.0
7.0,0.0,1.0,0.0,0.0,389.0
8.0,0.0,1.0,0.0,0.0,334.0
9.0,0.0,1.0,0.0,0.0,341.0
10.0,0.0,1.0,0.0,0.0,369.0
11.0,0.0,1.0,0.0,0.0,434.0
12.0,0.0,1.0,0.0,0.0,471.0
13.0,0.0,1.0,0.0,0.0,551.0
14.0,0.0,1.0,0.0,0.0,651.0
15.0,0.0,1.0,0.0,0.0,659.0
0.0,0.0,1.0,0.0,0.0,665.0
1.0,0.0,1.0,0.0,0.0,674.0
2.0,0.0,1.0,0.0,0.0,639.0
3.0,0.0,1.0,0.0,0.0,588.0
4.0,0.0,1.0,0.0,0.0,518.0
5.0,0.0,1.0,0.0,0.0,452.0
6.0,0.0,1.0,0.0,0.0,434.0
7.0,0.0,1.0,0.0,0.0,454.0
8.0,0.0,1.0,0.0,0.0,429.0
9.0,0.0,1.0,0.0,0.0,436.0
10.0,0.0,1.0,0.0,0.0,487.0
11.0,0.0,1.0,0.0,0.0,464.0
12.0,0.0,1.0,0.0,0.0,396.0
13.0,0.0,1.0,0.0,0.0,380.0
14.0,0.0,1.0,0.0,0.0,423.0
15.0,0.0,1.0,0.0,0.0,467.0
0.0,0.0,1.0,0.0,0.0,518.0
1.0,0.0,1.0,0.0,0.0,691.0
2.0,0.0,1.0,0.0,0.0,726.0
3.0,0.0,1.0,0.0,0.0,658.0
4.0,0.0,1.0,0.0,0.0,623.0
5.0,0.0,1.0,0.0,0.0,560.0
6.0,0.0,1.0,0.0,0.0,519.0
7.0,0.0,1.0,0.0,0.0,506.0
8.0,0.0,1.0,0.0,0.0,462.0
9.0,0.0,1.0,0.0,0.0,473.0
10.0,0.0,1.0,0.0,0.0,473.0
11.0,0.0,1.0,0.0,0.0,452.0
12.0,0.0,1.0,0.0,0.0,425.0
13.0,0.0,1.0,0.0,0.0,425.0
14.0,0.0,1.0,0.0,0.0,440.0
15.0,0.0,1.0,0.0,0.0,454.0
0.0,0.0,1.0,0.0,0.0,425.0
1.0,0.0,1.0,0.0,0.0,431.0
2.0,0.0,1.0,0.0,0.0,436.0
3.0,0.0,1.0,0.0,0.0,476.0
4.0,0.0,1.0,0.0,0.0,556.0
5.0,0.0,1.0,0.0,0.0,645.0
6.0,0.0,1.0,0.0,0.0,664.0
7.0,0.0,1.0,0.0,0.0,649.0
8.0,0.0,1.0,0.0,0.0,609.0
9.0,0.0,1.0,0.0,0.0,540.0
10.0,0.0,1.0,0.0,0.0,528.0
11.0,0.0,1.0,0.0,0.0,544.0
12.0,0.0,1.0,0.0,0.0,530.0
13.0,0.0,1.0,0.0,0.0,505.0
14.0,0.0,1.0,0.0,0.0,492.0
15.0,0.0,1.0,0.0,0.0,487.0
0.0,0.0,1.0,0.0,0.0,497.0
1.0,0.0,1.0,0.0,0.0,449.0
2.0,0.0,1.0,0.0,0.0,376.0
3.0,0.0,1.0,0.0,0.0,311.0
4.0,0.0,1.0,0.0,0.0,344.0
5.0,0.0,1.0,0.0,0.0,372.0
6.0,0.0,1.0,0.0,0.0,452.0
7.0,0.0,1.0,0.0,0.0,511.0
8.0,0.0,1.0,0.0,0.0,547.0
9.0,0.0,1.0,0.0,0.0,609.0
10.0,0.0,1.0,0.0,0.0,697.0
11.0,0.0,1.0,0.0,0.0,698.0
12.0,0.0,1.0,0.0,0.0,619.0
13.0,0.0,1.0,0.0,0.0,575.0
14.0,0.0,1.0,0.0,0.0,581.0
15.0,0.0,1.0,0.0,0.0,543.0
0.0,0.0,1.0,0.0,0.0,515.0
1.0,0.0,1.0,0.0,0.0,541.0
2.0,0.0,1.0,0.0,0.0,551.0
3.0,0.0,1.0,0.0,0.0,548.0
4.0,0.0,1.0,0.0,0.0,540.0
5.0,0.0,1.0,0.0,0.0,482.0
6.0,0.0,1.0,0.0,0.0,393.0
7.0,0.0,1.0,0.0,0.0,372.0
8.0,0.0,1.0,0.0,0.0,350.0
9.0,0.0,1.0,0.0,0.0,377.0
10.0,0.0,1.0,0.0,0.0,449.0
11.0,0.0,1.0,0.0,0.0,460.0
12.0,0.0,1.0,0.0,0.0,512.0
13.0,0.0,1.0,0.0,0.0,592.0
14.0,0.0,1.0,0.0,0.0,646.0
15.0,0.0,1.0,0.0,0.0,662.0
0.0,0.0,1.0,0.0,0.0,615.0
1.0,0.0,1.0,0.0,0.0,607.0
2.0,0.0,1.0,0.0,0.0,606.0
3.0,0.0,1.0,0.0,0.0,565.0
4.0,0.0,1.0,0.0,0.0,548.0
5.0,0.0,1.0,0.0,0.0,554.0
6.0,0.0,1.0,0.0,0.0,530.0
7.0,0.0,1.0,0.0,0.0,481.0
8.0,0.0,1.0,0.0,0.0,434.0
9.0,0.0,1.0,0.0,0.0,428.0
10.0,0.0,1.0,0.0,0.0,362.0
11.0,0.0,1.0,0.0,0.0,326.0
12.0,0.0,1.0,0.0,0.0,345.0
13.0,0.0,1.0,0.0,0.0,403.0
14.0,0.0,1.0,0.0,0.0,470.0
15.0,1.0,1.0,0.0,0.0,1022.0
0.0,1.0,1.0,0.0,0.0,262.0
1.0,1.0,1.0,0.0,0.0,0.0
2.0,1.0,1.0,0.0,0.0,0.0
3.0,1.0,1.0,0.0,0.0,156.0
4.0,1.0,1.0,0.0,0.0,239.0
5.0,1.0,1.0,0.0,0.0,302.0
6.0,1.0,1.0,0.0,0.0,363.0
7.0,1.0,1.0,0.0,0.0,408.0
8.0,1.0,1.0,0.0,0.0,414.0
9.0,1.0,1.0,0.0,0.0,425.0
10.0,1.0,1.0,0.0,0.0,515.0
11.0,1.0,1.0,0.0,0.0,567.0
12.0,1.0,1.0,0.0,0.0,567.0
13.0,1.0,1.0,0.0,0.0,524.0
14.0,1.0,1.0,0.0,0.0,472.0
15.0,1.0,1.0,0.0,0.0,435.0
0.0,1.0,1.0,0.0,0.0,417.0
1.0,1.0,1.0,0.0,0.0,426.0
2.0,1.0,1.0,0.0,0.0,477.0
3.0,1.0,1.0,0.0,0.0,535.0
4.0,1.0,1.0,0.0,0.0,563.0
5.0,1.0,1.0,0.0,0.0,627.0
6.0,1.0,1.0,0.0,0.0,663.0
7.0,1.0,1.0,0.0,0.0,657.0
8.0,1.0,1.0,0.0,0.0,659.0
9.0,1.0,1.0,0.0,0.0,619.0
10.0,1.0,1.0,0.0,0.0,579.0
11.0,1.0,1.0,0.0,0.0,545.0
12.0,1.0,1.0,0.0,0.0,535.0
13.0,1.0,1.0,0.0,0.0,525.0
14.0,1.0,1.0,0.0,0.0,534.0
15.0,1.0,1.0,0.0,0.0,529.0
0.0,1.0,1.0,0.0,0.0,501.0
1.0,1.0,1.0,0.0,0.0,442.0
2.0,1.0,1.0,0.0,0.0,387.0
3.0,1.0,1.0,0.0,0.0,359.0
4.0,1.0,1.0,0.0,0.0,359.0
5.0,1.0,1.0,0.0,0.0,404.0
6.0,1.0,1.0,0.0,0.0,466.0
7.0,1.0,1.0,0.0,0.0,518.0
8.0,1.0,1.0,0.0,0.0,571.0
9.0,1.0,1.0,0.0,0.0,628.0
10.0,1.0,1.0,0.0,0.0,663.0
11.0,1.0,1.0,0.0,0.0,654.0
12.0,1.0,1.0,0.0,0.0,637.0
13.0,1.0,1.0,0.0,0.0,617.0
14.0,1.0,1.0,0.0,0.0,580.0
15.0,1.0,1.0,0.0,0.0,542.0
0.0,1.0,1.0,0.0,0.0,553.0
1.0,1.0,1.0,0.0,0.0,555.0
2.0,1.0,1.0,0.0,0.0,519.0
3.0,1.0,1.0,0.0,0.0,494.0
4.0,1.0,1.0,0.0,0.0,474.0
5.0,1.0,1.0,0.0,0.0,455.0
6.0,1.0,1.0,0.0,0.0,426.0
7.0,1.0,1.0,0.0,0.0,420.0
8.0,1.0,1.0,0.0,0.0,448.0
9.0,1.0,1.0,0.0,0.0,481.0
10.0,1.0,1.0,0.0,0.0,520.0
11.0,1.0,1.0,0.0,0.0,569.0
12.0,1.0,1.0,0.0,0.0,596.0
13.0,1.0,1.0,0.0,0.0,606.0
14.0,1.0,1.0,0.0,0.0,624.0
15.0,1.0,1.0,0.0,0.0,614.0
0.0,1.0,1.0,0.0,0.0,566.0
1.0,1.0,1.0,0.0,0.0,512.0
2.0,1.0,1.0,0.0,0.0,511.0
3.0,1.0,1.0,0.0,0.0,521.0
4.0,1.0,1.0,0.0,0.0,481.0
5.0,1.0,1.0,0.0,0.0,480.0
6.0,1.0,1.0,0.0,0.0,506.0
7.0,1.0,1.0,0.0,0.0,540.0
8.0,1.0,1.0,0.0,0.0,539.0
9.0,1.0,1.0,0.0,0.0,502.0
10.0,1.0,1.0,0.0,0.0,427.0
11.0,1.0,1.0,0.0,0.0,378.0
12.0,1.0,1.0,0.0,0.0,366.0
13.0,1.0,1.0,0.0,0.0,403.0
14.0,1.0,1.0,0.0,0.0,460.0
15.0,1.0,1.0,0.0,0.0,504.0
0.0,1.0,1.0,0.0,0.0,571.0
1.0,1.0,1.0,0.0,0.0,615.0
2.0,1.0,1.0,0.0,0.0,625.0
3.0,1.0,1.0,0.0,0.0,610.0
4.0,1.0,1.0,0.0,0.0,578.0
5.0,1.0,1.0,0.0,0.0,535.0
6.0,1.0,1.0,0.0,0.0,508.0
7.0,1.0,1.0,0.0,0.0,506.0
8.0,1.0,1.0,0.0,0.0,512.0
9.0,1.0,1.0,0.0,0.0,512.0
10.0,1.0,1.0,0.0,0.0,490.0
11.0,1.0,1.0,0.0,0.0,489.0
12.0,1.0,1.0,0.0,0.0,493.0
13.0,1.0,1.0,0.0,0.0,428.0
14.0,1.0,1.0,0.0,0.0,381.0
15.0,1.0,1.0,0.0,0.0,357.0
0.0,1.0,1.0,0.0,0.0,362.0
1.0,1.0,1.0,0.0,0.0,391.0
2.0,1.0,1.0,0.0,0.0,423.0
3.0,1.0,1.0,0.0,0.0,481.0
4.0,1.0,1.0,0.0,0.0,553.0
5.0,1.0,1.0,0.0,0.0,617.0
6.0,1.0,1.0,0.0,0.0,630.0
7.0,1.0,1.0,0.0,0.0,611.0
8.0,1.0,1.0,0.0,0.0,574.0
9.0,1.0,1.0,0.0,0.0,541.0
10.0,1.0,1.0,0.0,0.0,512.0
11.0,1.0,1.0,0.0,0.0,500.0
12.0,1.0,1.0,0.0,0.0,483.0
13.0,1.0,1.0,0.0,0.0,485.0
14.0,1.0,1.0,0.0,0.0,487.0
15.0,1.0,1.0,0.0,0.0,518.0
0.0,1.0,1.0,0.0,0.0,507.0
1.0,1.0,1.0,0.0,0.0,459.0
2.0,1.0,1.0,0.0,0.0,394.0
3.0,1.0,1.0,0.0,0.0,364.0
4.0,1.0,1.0,0.0,0.0,371.0
5.0,1.0,1.0,0.0,0.0,407.0
6.0,1.0,1.0,0.0,0.0,446.0
7.0,1.0,1.0,0.0,0.0,485.0
8.0,1.0,1.0,0.0,0.0,551.0
9.0,1.0,1.0,0.0,0.0,614.0
10.0,1.0,1.0,0.0,0.0,640.0
11.0,1.0,1.0,0.0,0.0,632.0
12.0,1.0,1.0,0.0,0.0,593.0
13.0,1.0,1.0,0.0,0.0,569.0
14.0,1.0,1.0,0.0,0.0,556.0
15.0,1.0,1.0,0.0,0.0,520.0
0.0,1.0,1.0,0.0,0.0,508.0
1.0,1.0,1.0,0.0,0.0,504.0
2.0,1.0,1.0,0.0,0.0,507.0
3.0,1.0,1.0,0.0,0.0,490.0
4.0,1.0,1.0,0.0,0.0,464.0
5.0,1.0,1.0,0.0,0.0,423.0
6.0,1.0,1.0,0.0,0.0,376.0
7.0,1.0,1.0,0.0,0.0,363.0
8.0,1.0,1.0,0.0,0.0,364.0
9.0,1.0,1.0,0.0,0.0,402.0
10.0,1.0,1.0,0.0,0.0,447.0
11.0,1.0,1.0,0.0,0.0,504.0
12.0,1.0,1.0,0.0,0.0,575.0
13.0,1.0,1.0,0.0,0.0,641.0
14.0,1.0,1.0,0.0,0.0,687.0
15.0,1.0,1.0,0.0,0.0,675.0
0.0,1.0,1.0,0.0,0.0,638.0
1.0,1.0,1.0,0.0,0.0,578.0
2.0,1.0,1.0,0.0,0.0,541.0
3.0,1.0,1.0,0.0,0.0,527.0
4.0,1.0,1.0,0.0,0.0,527.0
5.0,1.0,1.0,0.0,0.0,529.0
6.0,1.0,1.0,0.0,0.0,522.0
7.0,1.0,1.0,0.0,0.0,510.0
8.0,1.0,1.0,0.0,0.0,485.0
9.0,1.0,1.0,0.0,0.0,429.0
10.0,1.0,1.0,0.0,0.0,380.0
11.0,1.0,1.0,0.0,0.0,359.0
12.0,1.0,1.0,0.0,0.0,383.0
13.0,1.0,1.0,0.0,0.0,421.0
14.0,1.0,1.0,0.0,0.0,471.0
15.0,1.0,1.0,0.0,0.0,537.0
0.0,1.0,1.0,0.0,0.0,600.0
1.0,1.0,1.0,0.0,0.0,645.0
2.0,1.0,1.0,0.0,0.0,662.0
3.0,1.0,1.0,0.0,0.0,662.0
4.0,1.0,1.0,0.0,0.0,623.0
5.0,1.0,1.0,0.0,0.0,588.0
6.0,1.0,1.0,0.0,0.0,558.0
7.0,1.0,1.0,0.0,0.0,543.0
8.0,1.0,1.0,0.0,0.0,525.0
9.0,1.0,1.0,0.0,0.0,508.0
10.0,1.0,1.0,0.0,0.0,503.0
11.0,1.0,1.0,0.0,0.0,488.0
12.0,1.0,1.0,0.0,0.0,483.0
13.0,1.0,1.0,0.0,0.0,449.0
14.0,1.0,1.0,0.0,0.0,396.0
15.0,1.0,1.0,0.0,0.0,382.0
0.0,1.0,1.0,0.0,0.0,398.0
1.0,1.0,1.0,0.0,0.0,428.0
2.0,1.0,1.0,0.0,0.0,458.0
3.0,1.0,1.0,0.0,0.0,500.0
4.0,1.0,1.0,0.0,0.0,564.0
5.0,1.0,1.0,0.0,0.0,625.0
6.0,1.0,1.0,0.0,0.0,669.0
7.0,1.0,1.0,0.0,0.0,659.0
8.0,1.0,1.0,0.0,0.0,615.0
9.0,1.0,1.0,0.0,0.0,568.0
10.0,1.0,1.0,0.0,0.0,553.0
11.0,1.0,1.0,0.0,0.0,539.0
12.0,1.0,1.0,0.0,0.0,520.0
13.0,1.0,1.0,0.0,0.0,509.0
14.0,1.0,1.0,0.0,0.0,508.0
15.0,1.0,1.0,0.0,0.0,497.0
0.0,1.0,1.0,0.0,0.0,479.0
1.0,1.0,1.0,0.0,0.0,427.0
2.0,1.0,1.0,0.0,0.0,371.0
3.0,1.0,1.0,0.0,0.0,344.0
4.0,1.0,1.0,0.0,0.0,365.0
5.0,1.0,1.0,0.0,0.0,397.0
6.0,1.0,1.0,0.0,0.0,457.0
7.0,1.0,1.0,0.0,0.0,513.0
8.0,1.0,1.0,0.0,0.0,580.0
9.0,1.0,1.0,0.0,0.0,612.0
10.0,1.0,1.0,0.0,0.0,651.0
11.0,1.0,1.0,0.0,0.0,637.0
12.0,1.0,1.0,0.0,0.0,593.0
13.0,1.0,1.0,0.0,0.0,553.0
14.0,1.0,1.0,0.0,0.0,539.0
15.0,1.0,1.0,0.0,0.0,546.0
0.0,1.0,1.0,0.0,0.0,551.0
1.0,1.0,1.0,0.0,0.0,545.0
2.0,1.0,1.0,0.0,0.0,537.0
3.0,1.0,1.0,0.0,0.0,520.0
4.0,1.0,1.0,0.0,0.0,493.0
5.0,1.0,1.0,0.0,0.0,416.0
6.0,1.0,1.0,0.0,0.0,347.0
7.0,1.0,1.0,0.0,0.0,339.0
8.0,1.0,1.0,0.0,0.0,363.0
9.0,1.0,1.0,0.0,0.0,397.0
10.0,1.0,1.0,0.0,0.0,445.0
11.0,1.0,1.0,0.0,0.0,480.0
12.0,1.0,1.0,0.0,0.0,538.0
13.0,1.0,1.0,0.0,0.0,608.0
14.0,1.0,1.0,0.0,0.0,647.0
15.0,1.0,1.0,0.0,0.0,624.0
0.0,1.0,1.0,0.0,0.0,592.0
1.0,1.0,1.0,0.0,0.0,561.0
2.0,1.0,1.0,0.0,0.0,531.0
3.0,1.0,1.0,0.0,0.0,528.0
4.0,1.0,1.0,0.0,0.0,515.0
5.0,1.0,1.0,0.0,0.0,506.0
6.0,1.0,1.0,0.0,0.0,510.0
7.0,1.0,1.0,0.0,0.0,500.0
8.0,1.0,1.0,0.0,0.0,497.0
9.0,1.0,1.0,0.0,0.0,431.0
10.0,1.0,1.0,0.0,0.0,383.0
11.0,1.0,1.0,0.0,0.0,364.0
12.0,1.0,1.0,0.0,0.0,375.0
13.0,1.0,1.0,0.0,0.0,409.0
14.0,1.0,1.0,0.0,0.0,446.0
15.0,1.0,1.0,0.0,0.0,495.0
0.0,1.0,1.0,0.0,0.0,566.0
1.0,1.0,1.0,0.0,0.0,635.0
2.0,1.0,1.0,0.0,0.0,668.0
3.0,1.0,1.0,0.0,0.0,639.0
4.0,1.0,1.0,0.0,0.0,607.0
5.0,1.0,1.0,0.0,0.0,561.0
6.0,1.0,1.0,0.0,0.0,536.0
7.0,1.0,1.0,0.0,0.0,525.0
8.0,1.0,1.0,0.0,0.0,523.0
9.0,1.0,1.0,0.0,0.0,524.0
10.0,1.0,1.0,0.0,0.0,515.0
11.0,1.0,1.0,0.0,0.0,495.0
12.0,1.0,1.0,0.0,0.0,494.0
13.0,1.0,1.0,0.0,0.0,440.0
14.0,1.0,1.0,0.0,0.0,385.0
15.0,1.0,1.0,0.0,0.0,371.0
0.0,1.0,1.0,0.0,0.0,395.0
1.0,1.0,1.0,0.0,0.0,426.0
2.0,1.0,1.0,0.0,0.0,463.0
3.0,1.0,1.0,0.0,0.0,524.0
4.0,1.0,1.0,0.0,0.0,576.0
5.0,1.0,1.0,0.0,0.0,638.0
6.0,1.0,1.0,0.0,0.0,680.0
7.0,1.0,1.0,0.0,0.0,651.0
8.0,1.0,1.0,0.0,0.0,605.0
9.0,1.0,1.0,0.0,0.0,563.0
10.0,1.0,1.0,0.0,0.0,538.0
11.0,1.0,1.0,0.0,0.0,529.0
12.0,1.0,1.0,0.0,0.0,523.0
13.0,1.0,1.0,0.0,0.0,513.0
14.0,1.0,1.0,0.0,0.0,508.0
15.0,1.0,1.0,0.0,0.0,499.0
0.0,1.0,1.0,0.0,0.0,498.0
1.0,1.0,1.0,0.0,0.0,452.0
2.0,1.0,1.0,0.0,0.0,387.0
3.0,1.0,1.0,0.0,0.0,360.0
4.0,1.0,1.0,0.0,0.0,376.0
5.0,1.0,1.0,0.0,0.0,412.0
6.0,1.0,1.0,0.0,0.0,450.0
7.0,1.0,1.0,0.0,0.0,498.0
8.0,1.0,1.0,0.0,0.0,553.0
9.0,1.0,1.0,0.0,0.0,643.0
10.0,1.0,1.0,0.0,0.0,685.0
11.0,1.0,1.0,0.0,0.0,641.0
12.0,1.0,1.0,0.0,0.0,603.0
13.0,1.0,1.0,0.0,0.0,569.0
14.0,1.0,1.0,0.0,0.0,547.0
15.0,1.0,1.0,0.0,0.0,536.0
0.0,1.0,1.0,0.0,0.0,529.0
1.0,1.0,1.0,0.0,0.0,526.0
2.0,1.0,1.0,0.0,0.0,523.0
3.0,1.0,1.0,0.0,0.0,511.0
4.0,1.0,1.0,0.0,0.0,498.0
5.0,1.0,1.0,0.0,0.0,443.0
6.0,1.0,1.0,0.0,0.0,382.0
7.0,1.0,1.0,0.0,0.0,375.0
8.0,1.0,1.0,0.0,0.0,391.0
9.0,1.0,1.0,0.0,0.0,409.0
10.0,1.0,1.0,0.0,0.0,448.0
11.0,1.0,1.0,0.0,0.0,511.0
12.0,1.0,1.0,0.0,0.0,558.0
13.0,1.0,1.0,0.0,0.0,636.0
14.0,1.0,1.0,0.0,0.0,681.0
15.0,1.0,1.0,0.0,0.0,636.0
0.0,1.0,1.0,0.0,0.0,575.0
1.0,1.0,1.0,0.0,0.0,537.0
2.0,1.0,1.0,0.0,0.0,528.0
3.0,1.0,1.0,0.0,0.0,511.0
4.0,1.0,1.0,0.0,0.0,497.0
5.0,1.0,1.0,0.0,0.0,513.0
6.0,1.0,1.0,0.0,0.0,525.0
7.0,1.0,1.0,0.0,0.0,524.0
8.0,1.0,1.0,0.0,0.0,517.0
9.0,1.0,1.0,0.0,0.0,447.0
10.0,1.0,1.0,0.0,0.0,370.0
11.0,1.0,1.0,0.0,0.0,347.0
12.0,1.0,1.0,0.0,0.0,371.0
13.0,1.0,1.0,0.0,0.0,403.0
14.0,1.0,1.0,0.0,0.0,448.0
15.0,1.0,1.0,0.0,0.0,501.0
0.0,1.0,1.0,0.0,0.0,566.0
1.0,1.0,1.0,0.0,0.0,618.0
2.0,1.0,1.0,0.0,0.0,660.0
3.0,1.0,1.0,0.0,0.0,628.0
4.0,1.0,1.0,0.0,0.0,612.0
5.0,1.0,1.0,0.0,0.0,585.0
6.0,1.0,1.0,0.0,0.0,545.0
7.0,1.0,1.0,0.0,0.0,551.0
8.0,1.0,1.0,0.0,0.0,537.0
9.0,1.0,1.0,0.0,0.0,511.0
10.0,1.0,1.0,0.0,0.0,495.0
11.0,1.0,1.0,0.0,0.0,499.0
12.0,1.0,1.0,0.0,0.0,499.0
13.0,1.0,1.0,0.0,0.0,443.0
14.0,1.0,1.0,0.0,0.0,395.0
15.0,1.0,1.0,0.0,0.0,382.0
0.0,1.0,1.0,0.0,0.0,375.0
1.0,1.0,1.0,0.0,0.0,403.0
2.0,1.0,1.0,0.0,0.0,451.0
3.0,1.0,1.0,0.0,0.0,503.0
4.0,1.0,1.0,0.0,0.0,555.0
5.0,1.0,1.0,0.0,0.0,625.0
6.0,1.0,1.0,0.0,0.0,670.0
7.0,1.0,1.0,0.0,0.0,632.0
8.0,1.0,1.0,0.0,0.0,599.0
9.0,1.0,1.0,0.0,0.0,569.0
10.0,1.0,1.0,0.0,0.0,539.0
11.0,1.0,1.0,0.0,0.0,532.0
12.0,1.0,1.0,0.0,0.0,523.0
13.0,1.0,1.0,0.0,0.0,519.0
14.0,1.0,1.0,0.0,0.0,524.0
15.0,1.0,1.0,0.0,0.0,523.0
0.0,1.0,1.0,0.0,0.0,502.0
1.0,1.0,1.0,0.0,0.0,443.0
2.0,1.0,1.0,0.0,0.0,398.0
3.0,1.0,1.0,0.0,0.0,374.0
4.0,1.0,1.0,0.0,0.0,384.0
5.0,1.0,1.0,0.0,0.0,404.0
6.0,1.0,1.0,0.0,0.0,450.0
7.0,1.0,1.0,0.0,0.0,504.0
8.0,1.0,1.0,0.0,0.0,564.0
9.0,1.0,1.0,0.0,0.0,623.0
10.0,1.0,1.0,0.0,0.0,668.0
11.0,1.0,1.0,0.0,0.0,633.0
12.0,1.0,1.0,0.0,0.0,595.0
13.0,1.0,1.0,0.0,0.0,565.0
14.0,1.0,1.0,0.0,0.0,546.0
15.0,1.0,1.0,0.0,0.0,533.0
0.0,1.0,1.0,0.0,0.0,512.0
1.0,1.0,1.0,0.0,0.0,496.0
2.0,1.0,1.0,0.0,0.0,495.0
3.0,1.0,1.0,0.0,0.0,500.0
4.0,1.0,1.0,0.0,0.0,506.0
5.0,1.0,1.0,0.0,0.0,438.0
6.0,1.0,1.0,0.0,0.0,390.0
7.0,1.0,1.0,0.0,0.0,363.0
8.0,1.0,1.0,0.0,0.0,376.0
9.0,1.0,1.0,0.0,0.0,405.0
10.0,1.0,1.0,0.0,0.0,455.0
11.0,1.0,1.0,0.0,0.0,512.0
12.0,1.0,1.0,0.0,0.0,560.0
13.0,1.0,1.0,0.0,0.0,617.0
14.0,1.0,1.0,0.0,0.0,674.0
15.0,1.0,1.0,0.0,0.0,642.0
0.0,1.0,1.0,0.0,0.0,591.0
1.0,1.0,1.0,0.0,0.0,558.0
2.0,1.0,1.0,0.0,0.0,524.0
3.0,1.0,1.0,0.0,0.0,509.0
4.0,1.0,1.0,0.0,0.0,481.0
5.0,1.0,1.0,0.0,0.0,478.0
6.0,1.0,1.0,0.0,0.0,493.0
7.0,1.0,1.0,0.0,0.0,508.0
8.0,1.0,1.0,0.0,0.0,528.0
9.0,1.0,1.0,0.0,0.0,495.0
10.0,1.0,1.0,0.0,0.0,463.0
11.0,1.0,1.0,0.0,0.0,444.0
12.0,1.0,1.0,0.0,0.0,443.0
13.0,1.0,1.0,0.0,0.0,444.0
14.0,1.0,1.0,0.0,0.0,445.0
15.0,1.0,1.0,0.0,0.0,487.0
0.0,1.0,1.0,0.0,0.0,540.0
1.0,1.0,1.0,0.0,0.0,594.0
2.0,1.0,1.0,0.0,0.0,638.0
3.0,1.0,1.0,0.0,0.0,623.0
4.0,1.0,1.0,0.0,0.0,588.0
5.0,1.0,1.0,0.0,0.0,574.0
6.0,1.0,1.0,0.0,0.0,539.0
7.0,1.0,1.0,0.0,0.0,520.0
8.0,1.0,1.0,0.0,0.0,504.0
9.0,1.0,1.0,0.0,0.0,503.0
10.0,1.0,1.0,0.0,0.0,506.0
11.0,1.0,1.0,0.0,0.0,498.0
12.0,1.0,1.0,0.0,0.0,501.0
13.0,1.0,1.0,0.0,0.0,438.0
14.0,1.0,1.0,0.0,0.0,375.0
15.0,1.0,1.0,0.0,0.0,360.0
0.0,1.0,1.0,0.0,0.0,384.0
1.0,1.0,1.0,0.0,0.0,413.0
2.0,1.0,1.0,0.0,0.0,444.0
3.0,1.0,1.0,0.0,0.0,501.0
4.0,1.0,1.0,0.0,0.0,568.0
5.0,1.0,1.0,0.0,0.0,621.0
6.0,1.0,1.0,0.0,0.0,663.0
7.0,1.0,1.0,0.0,0.0,637.0
8.0,1.0,1.0,0.0,0.0,596.0
9.0,1.0,1.0,0.0,0.0,570.0
10.0,1.0,1.0,0.0,0.0,552.0
11.0,1.0,1.0,0.0,0.0,527.0
12.0,1.0,1.0,0.0,0.0,517.0
13.0,1.0,1.0,0.0,0.0,516.0
14.0,1.0,1.0,0.0,0.0,502.0
15.0,1.0,1.0,0.0,0.0,506.0
0.0,1.0,1.0,0.0,0.0,507.0
1.0,1.0,1.0,0.0,0.0,441.0
2.0,1.0,1.0,0.0,0.0,387.0
3.0,1.0,1.0,0.0,0.0,373.0
4.0,1.0,1.0,0.0,0.0,371.0
5.0,1.0,1.0,0.0,0.0,394.0
6.0,1.0,1.0,0.0,0.0,439.0
7.0,1.0,1.0,0.0,0.0,502.0
8.0,1.0,1.0,0.0,0.0,560.0
9.0,1.0,1.0,0.0,0.0,623.0
10.0,1.0,1.0,0.0,0.0,672.0
11.0,1.0,1.0,0.0,0.0,621.0
12.0,1.0,1.0,0.0,0.0,574.0
13.0,1.0,1.0,0.0,0.0,553.0
14.0,1.0,1.0,0.0,0.0,542.0
15.0,1.0,1.0,0.0,0.0,534.0
0.0,1.0,1.0,0.0,0.0,531.0
1.0,1.0,1.0,0.0,0.0,520.0
2.0,1.0,1.0,0.0,0.0,516.0
3.0,1.0,1.0,0.0,0.0,519.0
4.0,1.0,1.0,0.0,0.0,519.0
5.0,1.0,1.0,0.0,0.0,439.0
6.0,1.0,1.0,0.0,0.0,376.0
7.0,1.0,1.0,0.0,0.0,350.0
8.0,1.0,1.0,0.0,0.0,358.0
9.0,1.0,1.0,0.0,0.0,384.0
10.0,1.0,1.0,0.0,0.0,419.0
11.0,1.0,1.0,0.0,0.0,476.0
12.0,1.0,1.0,0.0,0.0,531.0
13.0,1.0,1.0,0.0,0.0,604.0
14.0,1.0,1.0,0.0,0.0,667.0
15.0,1.0,1.0,0.0,0.0,640.0
0.0,1.0,1.0,0.0,0.0,602.0
1.0,1.0,1.0,0.0,0.0,578.0
2.0,1.0,1.0,0.0,0.0,568.0
3.0,1.0,1.0,0.0,0.0,544.0
4.0,1.0,1.0,0.0,0.0,524.0
5.0,1.0,1.0,0.0,0.0,514.0
6.0,1.0,1.0,0.0,0.0,506.0
7.0,1.0,1.0,0.0,0.0,516.0
8.0,1.0,1.0,0.0,0.0,527.0
9.0,1.0,1.0,0.0,0.0,456.0
10.0,1.0,1.0,0.0,0.0,373.0
11.0,1.0,1.0,0.0,0.0,343.0
12.0,1.0,1.0,0.0,0.0,357.0
13.0,1.0,1.0,0.0,0.0,382.0
14.0,1.0,1.0,0.0,0.0,442.0
15.0,1.0,1.0,0.0,0.0,495.0
0.0,1.0,1.0,0.0,0.0,556.0
1.0,1.0,1.0,0.0,0.0,647.0
2.0,1.0,1.0,0.0,0.0,705.0
3.0,1.0,1.0,0.0,0.0,658.0
4.0,1.0,1.0,0.0,0.0,609.0
5.0,1.0,1.0,0.0,0.0,583.0
6.0,1.0,1.0,0.0,0.0,563.0
7.0,1.0,1.0,0.0,0.0,538.0
8.0,1.0,1.0,0.0,0.0,503.0
9.0,1.0,1.0,0.0,0.0,476.0
10.0,1.0,1.0,0.0,0.0,482.0
11.0,1.0,1.0,0.0,0.0,489.0
12.0,1.0,1.0,0.0,0.0,487.0
13.0,1.0,1.0,0.0,0.0,425.0
14.0,1.0,1.0,0.0,0.0,378.0
15.0,1.0,1.0,0.0,0.0,371.0
0.0,1.0,1.0,0.0,0.0,393.0
1.0,1.0,1.0,0.0,0.0,428.0
2.0,1.0,1.0,0.0,0.0,471.0
3.0,1.0,1.0,0.0,0.0,542.0
4.0,1.0,1.0,0.0,0.0,621.0
5.0,1.0,1.0,0.0,0.0,664.0
6.0,1.0,1.0,0.0,0.0,682.0
7.0,1.0,1.0,0.0,0.0,632.0
8.0,1.0,1.0,0.0,0.0,582.0
9.0,1.0,1.0,0.0,0.0,556.0
10.0,1.0,1.0,0.0,0.0,536.0
11.0,1.0,1.0,0.0,0.0,518.0
12.0,1.0,1.0,0.0,0.0,521.0
13.0,1.0,1.0,0.0,0.0,523.0
14.0,1.0,1.0,0.0,0.0,526.0
15.0,1.0,1.0,0.0,0.0,517.0
0.0,1.0,1.0,0.0,0.0,512.0
1.0,1.0,1.0,0.0,0.0,441.0
2.0,1.0,1.0,0.0,0.0,383.0
3.0,1.0,1.0,0.0,0.0,355.0
4.0,1.0,1.0,0.0,0.0,363.0
5.0,1.0,1.0,0.0,0.0,411.0
6.0,1.0,1.0,0.0,0.0,465.0
7.0,1.0,1.0,0.0,0.0,518.0
8.0,1.0,1.0,0.0,0.0,576.0
9.0,1.0,1.0,0.0,0.0,620.0
10.0,1.0,1.0,0.0,0.0,644.0
11.0,1.0,1.0,0.0,0.0,626.0
12.0,1.0,1.0,0.0,0.0,589.0
13.0,1.0,1.0,0.0,0.0,546.0
14.0,1.0,1.0,0.0,0.0,516.0
15.0,1.0,1.0,0.0,0.0,499.0
0.0,1.0,1.0,0.0,0.0,494.0
1.0,1.0,1.0,0.0,0.0,477.0
2.0,1.0,1.0,0.0,0.0,460.0
3.0,1.0,1.0,0.0,0.0,481.0
4.0,1.0,1.0,0.0,0.0,499.0
5.0,1.0,1.0,0.0,0.0,442.0
6.0,1.0,1.0,0.0,0.0,392.0
7.0,1.0,1.0,0.0,0.0,362.0
8.0,1.0,1.0,0.0,0.0,372.0
9.0,1.0,1.0,0.0,0.0,417.0
10.0,1.0,1.0,0.0,0.0,475.0
11.0,1.0,1.0,0.0,0.0,516.0
12.0,1.0,1.0,0.0,0.0,579.0
13.0,1.0,1.0,0.0,0.0,655.0
14.0,1.0,1.0,0.0,0.0,711.0
15.0,1.0,1.0,0.0,0.0,676.0
0.0,1.0,1.0,0.0,0.0,618.0
1.0,1.0,1.0,0.0,0.0,594.0
2.0,1.0,1.0,0.0,0.0,575.0
3.0,1.0,1.0,0.0,0.0,557.0
4.0,1.0,1.0,0.0,0.0,533.0
5.0,1.0,1.0,0.0,0.0,528.0
6.0,1.0,1.0,0.0,0.0,522.0
7.0,1.0,1.0,0.0,0.0,511.0
8.0,1.0,1.0,0.0,0.0,513.0
9.0,1.0,1.0,0.0,0.0,447.0
10.0,1.0,1.0,0.0,0.0,386.0
11.0,1.0,1.0,0.0,0.0,358.0
12.0,1.0,1.0,0.0,0.0,371.0
13.0,1.0,1.0,0.0,0.0,399.0
14.0,1.0,1.0,0.0,0.0,449.0
15.0,1.0,1.0,0.0,0.0,501.0
0.0,1.0,1.0,0.0,0.0,560.0
1.0,1.0,1.0,0.0,0.0,631.0
2.0,1.0,1.0,0.0,0.0,689.0
3.0,1.0,1.0,0.0,0.0,646.0
4.0,1.0,1.0,0.0,0.0,604.0
5.0,1.0,1.0,0.0,0.0,572.0
6.0,1.0,1.0,0.0,0.0,551.0
7.0,1.0,1.0,0.0,0.0,530.0
8.0,1.0,1.0,0.0,0.0,521.0
9.0,1.0,1.0,0.0,0.0,514.0
10.0,1.0,1.0,0.0,0.0,502.0
11.0,1.0,1.0,0.0,0.0,498.0
12.0,1.0,1.0,0.0,0.0,513.0
13.0,1.0,1.0,0.0,0.0,457.0
14.0,1.0,1.0,0.0,0.0,400.0
15.0,1.0,1.0,0.0,0.0,378.0
0.0,1.0,1.0,0.0,0.0,388.0
1.0,1.0,1.0,0.0,0.0,414.0
2.0,1.0,1.0,0.0,0.0,458.0
3.0,1.0,1.0,0.0,0.0,513.0
4.0,1.0,1.0,0.0,0.0,580.0
5.0,1.0,1.0,0.0,0.0,645.0
6.0,1.0,1.0,0.0,0.0,696.0
7.0,1.0,1.0,0.0,0.0,660.0
8.0,1.0,1.0,0.0,0.0,614.0
9.0,1.0,1.0,0.0,0.0,575.0
10.0,1.0,1.0,0.0,0.0,553.0
11.0,1.0,1.0,0.0,0.0,547.0
12.0,1.0,1.0,0.0,0.0,535.0
13.0,1.0,1.0,0.0,0.0,520.0
14.0,1.0,1.0,0.0,0.0,515.0
15.0,1.0,1.0,0.0,0.0,501.0
0.0,1.0,1.0,0.0,0.0,500.0
1.0,1.0,1.0,0.0,0.0,435.0
2.0,1.0,1.0,0.0,0.0,382.0
3.0,1.0,1.0,0.0,0.0,369.0
4.0,1.0,1.0,0.0,0.0,388.0
5.0,1.0,1.0,0.0,0.0,420.0
6.0,1.0,1.0,0.0,0.0,457.0
7.0,1.0,1.0,0.0,0.0,504.0
8.0,1.0,1.0,0.0,0.0,546.0
9.0,1.0,1.0,0.0,0.0,588.0
10.0,1.0,1.0,0.0,0.0,640.0
11.0,1.0,1.0,0.0,0.0,612.0
12.0,1.0,1.0,0.0,0.0,577.0
13.0,1.0,1.0,0.0,0.0,545.0
14.0,1.0,1.0,0.0,0.0,505.0
15.0,1.0,1.0,0.0,0.0,487.0
0.0,1.0,1.0,0.0,0.0,473.0
1.0,1.0,1.0,0.0,0.0,479.0
2.0,1.0,1.0,0.0,0.0,481.0
3.0,1.0,1.0,0.0,0.0,487.0
4.0,1.0,1.0,0.0,0.0,485.0
5.0,1.0,1.0,0.0,0.0,419.0
6.0,1.0,1.0,0.0,0.0,382.0
7.0,1.0,1.0,0.0,0.0,352.0
8.0,1.0,1.0,0.0,0.0,364.0
9.0,1.0,1.0,0.0,0.0,402.0
10.0,1.0,1.0,0.0,0.0,442.0
11.0,1.0,1.0,0.0,0.0,490.0
12.0,1.0,1.0,0.0,0.0,549.0
13.0,1.0,1.0,0.0,0.0,617.0
14.0,1.0,1.0,0.0,0.0,671.0
15.0,1.0,1.0,0.0,0.0,639.0
0.0,1.0,1.0,0.0,0.0,595.0
1.0,1.0,1.0,0.0,0.0,560.0
2.0,1.0,1.0,0.0,0.0,531.0
3.0,1.0,1.0,0.0,0.0,528.0
4.0,1.0,1.0,0.0,0.0,524.0
5.0,1.0,1.0,0.0,0.0,509.0
6.0,1.0,1.0,0.0,0.0,499.0
7.0,1.0,1.0,0.0,0.0,497.0
8.0,1.0,1.0,0.0,0.0,506.0
9.0,1.0,1.0,0.0,0.0,435.0
10.0,1.0,1.0,0.0,0.0,372.0
11.0,1.0,1.0,0.0,0.0,355.0
12.0,1.0,1.0,0.0,0.0,369.0
13.0,1.0,1.0,0.0,0.0,402.0
14.0,1.0,1.0,0.0,0.0,446.0
15.0,1.0,1.0,0.0,0.0,500.0
0.0,1.0,1.0,0.0,0.0,551.0
1.0,1.0,1.0,0.0,0.0,621.0
2.0,1.0,1.0,0.0,0.0,679.0
3.0,1.0,1.0,0.0,0.0,639.0
4.0,1.0,1.0,0.0,0.0,596.0
5.0,1.0,1.0,0.0,0.0,568.0
6.0,1.0,1.0,0.0,0.0,556.0
7.0,1.0,1.0,0.0,0.0,534.0
8.0,1.0,1.0,0.0,0.0,515.0
9.0,1.0,1.0,0.0,0.0,506.0
10.0,1.0,1.0,0.0,0.0,503.0
11.0,1.0,1.0,0.0,0.0,504.0
12.0,1.0,1.0,0.0,0.0,504.0
13.0,1.0,1.0,0.0,0.0,427.0
14.0,1.0,1.0,0.0,0.0,368.0
15.0,1.0,1.0,0.0,0.0,351.0
0.0,1.0,1.0,0.0,0.0,363.0
1.0,1.0,1.0,0.0,0.0,412.0
2.0,1.0,1.0,0.0,0.0,473.0
3.0,1.0,1.0,0.0,0.0,532.0
4.0,1.0,1.0,0.0,0.0,585.0
5.0,1.0,1.0,0.0,0.0,659.0
6.0,1.0,1.0,0.0,0.0,698.0
7.0,1.0,1.0,0.0,0.0,660.0
8.0,1.0,1.0,0.0,0.0,610.0
9.0,1.0,1.0,0.0,0.0,564.0
10.0,1.0,1.0,0.0,0.0,546.0
11.0,1.0,1.0,0.0,0.0,529.0
12.0,1.0,1.0,0.0,0.0,515.0
13.0,1.0,1.0,0.0,0.0,509.0
14.0,1.0,1.0,0.0,0.0,515.0
15.0,1.0,1.0,0.0,0.0,516.0
0.0,1.0,1.0,0.0,0.0,521.0
1.0,1.0,1.0,0.0,0.0,443.0
2.0,1.0,1.0,0.0,0.0,384.0
3.0,1.0,1.0,0.0,0.0,357.0
4.0,1.0,1.0,0.0,0.0,372.0
5.0,1.0,1.0,0.0,0.0,411.0
6.0,1.0,1.0,0.0,0.0,453.0
7.0,1.0,1.0,0.0,0.0,498.0
8.0,1.0,1.0,0.0,0.0,558.0
9.0,1.0,1.0,0.0,0.0,633.0
10.0,1.0,1.0,0.0,0.0,685.0
11.0,1.0,1.0,0.0,0.0,655.0
12.0,1.0,1.0,0.0,0.0,613.0
13.0,1.0,1.0,0.0,0.0,571.0
14.0,1.0,1.0,0.0,0.0,555.0
15.0,1.0,1.0,0.0,0.0,530.0
0.0,1.0,1.0,0.0,0.0,509.0
1.0,1.0,1.0,0.0,0.0,496.0
2.0,1.0,1.0,0.0,0.0,496.0
3.0,1.0,1.0,0.0,0.0,503.0
4.0,1.0,1.0,0.0,0.0,500.0
5.0,1.0,1.0,0.0,0.0,443.0
6.0,1.0,1.0,0.0,0.0,382.0
7.0,1.0,1.0,0.0,0.0,364.0
8.0,1.0,1.0,0.0,0.0,375.0
9.0,1.0,1.0,0.0,0.0,423.0
10.0,1.0,1.0,0.0,0.0,471.0
11.0,1.0,1.0,0.0,0.0,521.0
12.0,1.0,1.0,0.0,0.0,597.0
13.0,1.0,1.0,0.0,0.0,647.0
14.0,1.0,1.0,0.0,0.0,674.0
15.0,1.0,1.0,0.0,0.0,634.0
0.0,1.0,1.0,0.0,0.0,591.0
1.0,1.0,1.0,0.0,0.0,563.0
2.0,1.0,1.0,0.0,0.0,547.0
3.0,1.0,1.0,0.0,0.0,537.0
4.0,1.0,1.0,0.0,0.0,523.0
5.0,1.0,1.0,0.0,0.0,516.0
6.0,1.0,1.0,0.0,0.0,504.0
7.0,1.0,1.0,0.0,0.0,487.0
8.0,1.0,1.0,0.0,0.0,502.0
9.0,1.0,1.0,0.0,0.0,434.0
10.0,1.0,1.0,0.0,0.0,377.0
11.0,1.0,1.0,0.0,0.0,345.0
12.0,1.0,1.0,0.0,0.0,359.0
13.0,1.0,1.0,0.0,0.0,398.0
14.0,1.0,1.0,0.0,0.0,442.0
15.0,1.0,1.0,0.0,0.0,502.0
0.0,1.0,1.0,0.0,0.0,572.0
1.0,1.0,1.0,0.0,0.0,644.0
2.0,1.0,1.0,0.0,0.0,682.0
3.0,1.0,1.0,0.0,0.0,648.0
4.0,1.0,1.0,0.0,0.0,595.0
5.0,1.0,1.0,0.0,0.0,557.0
6.0,1.0,1.0,0.0,0.0,539.0
7.0,1.0,1.0,0.0,0.0,525.0
8.0,1.0,1.0,0.0,0.0,511.0
9.0,1.0,1.0,0.0,0.0,512.0
10.0,1.0,1.0,0.0,0.0,514.0
11.0,1.0,1.0,0.0,0.0,517.0
12.0,1.0,1.0,0.0,0.0,515.0
13.0,1.0,1.0,0.0,0.0,437.0
14.0,1.0,1.0,0.0,0.0,358.0
15.0,1.0,1.0,0.0,0.0,338.0
0.0,1.0,1.0,0.0,0.0,370.0
1.0,1.0,1.0,0.0,0.0,404.0
2.0,1.0,1.0,0.0,0.0,457.0
3.0,1.0,1.0,0.0,0.0,516.0
4.0,1.0,1.0,0.0,0.0,577.0
5.0,1.0,1.0,0.0,0.0,646.0
6.0,1.0,1.0,0.0,0.0,691.0
7.0,1.0,1.0,0.0,0.0,643.0
8.0,1.0,1.0,0.0,0.0,595.0
9.0,1.0,1.0,0.0,0.0,568.0
10.0,1.0,1.0,0.0,0.0,553.0
11.0,1.0,1.0,0.0,0.0,536.0
12.0,1.0,1.0,0.0,0.0,512.0
13.0,1.0,1.0,0.0,0.0,506.0
14.0,1.0,1.0,0.0,0.0,500.0
15.0,1.0,1.0,0.0,0.0,499.0
0.0,1.0,1.0,0.0,0.0,507.0
1.0,1.0,1.0,0.0,0.0,452.0
2.0,1.0,1.0,0.0,0.0,393.0
3.0,1.0,1.0,0.0,0.0,363.0
4.0,1.0,1.0,0.0,0.0,371.0
5.0,1.0,1.0,0.0,0.0,399.0
6.0,1.0,1.0,0.0,0.0,446.0
7.0,1.0,1.0,0.0,0.0,500.0
8.0,1.0,1.0,0.0,0.0,551.0
9.0,1.0,1.0,0.0,0.0,636.0
10.0,1.0,1.0,0.0,0.0,699.0
11.0,1.0,1.0,0.0,0.0,641.0
12.0,1.0,1.0,0.0,0.0,601.0
13.0,1.0,1.0,0.0,0.0,574.0
14.0,1.0,1.0,0.0,0.0,548.0
15.0,1.0,1.0,0.0,0.0,535.0
0.0,1.0,1.0,0.0,0.0,520.0
1.0,1.0,1.0,0.0,0.0,508.0
2.0,1.0,1.0,0.0,0.0,496.0
3.0,1.0,1.0,0.0,0.0,485.0
4.0,1.0,1.0,0.0,0.0,506.0
5.0,1.0,1.0,0.0,0.0,448.0
6.0,1.0,1.0,0.0,0.0,387.0
7.0,1.0,1.0,0.0,0.0,361.0
8.0,1.0,1.0,0.0,0.0,367.0
9.0,1.0,1.0,0.0,0.0,400.0
10.0,1.0,1.0,0.0,0.0,444.0
11.0,1.0,1.0,0.0,0.0,493.0
12.0,1.0,1.0,0.0,0.0,556.0
13.0,1.0,1.0,0.0,0.0,623.0
14.0,1.0,1.0,0.0,0.0,679.0
15.0,1.0,1.0,0.0,0.0,642.0
0.0,1.0,1.0,0.0,0.0,607.0
1.0,1.0,1.0,0.0,0.0,576.0
2.0,1.0,1.0,0.0,0.0,549.0
3.0,1.0,1.0,0.0,0.0,543.0
4.0,1.0,1.0,0.0,0.0,527.0
5.0,1.0,1.0,0.0,0.0,508.0
6.0,1.0,1.0,0.0,0.0,504.0
7.0,1.0,1.0,0.0,0.0,504.0
8.0,1.0,1.0,0.0,0.0,505.0
9.0,1.0,1.0,0.0,0.0,453.0
10.0,1.0,1.0,0.0,0.0,388.0
11.0,1.0,1.0,0.0,0.0,356.0
12.0,1.0,1.0,0.0,0.0,368.0
13.0,1.0,1.0,0.0,0.0,405.0
14.0,1.0,1.0,0.0,0.0,450.0
15.0,1.0,1.0,0.0,0.0,499.0
0.0,1.0,1.0,0.0,0.0,558.0
1.0,1.0,1.0,0.0,0.0,624.0
2.0,1.0,1.0,0.0,0.0,663.0
3.0,1.0,1.0,0.0,0.0,639.0
4.0,1.0,1.0,0.0,0.0,594.0
5.0,1.0,1.0,0.0,0.0,557.0
6.0,1.0,1.0,0.0,0.0,539.0
7.0,1.0,1.0,0.0,0.0,524.0
8.0,1.0,1.0,0.0,0.0,515.0
9.0,1.0,1.0,0.0,0.0,507.0
10.0,1.0,1.0,0.0,0.0,505.0
11.0,1.0,1.0,0.0,0.0,511.0
12.0,1.0,1.0,0.0,0.0,507.0
13.0,1.0,1.0,0.0,0.0,445.0
14.0,1.0,1.0,0.0,0.0,397.0
15.0,1.0,1.0,0.0,0.0,385.0
0.0,1.0,1.0,0.0,0.0,383.0
1.0,1.0,1.0,0.0,0.0,412.0
2.0,1.0,1.0,0.0,0.0,454.0
3.0,1.0,1.0,0.0,0.0,494.0
4.0,1.0,1.0,0.0,0.0,544.0
5.0,1.0,1.0,0.0,0.0,609.0
6.0,1.0,1.0,0.0,0.0,661.0
7.0,1.0,1.0,0.0,0.0,632.0
8.0,1.0,1.0,0.0,0.0,600.0
9.0,1.0,1.0,0.0,0.0,589.0
10.0,1.0,1.0,0.0,0.0,583.0
11.0,1.0,1.0,0.0,0.0,562.0
12.0,1.0,1.0,0.0,0.0,532.0
13.0,1.0,1.0,0.0,0.0,511.0
14.0,1.0,1.0,0.0,0.0,500.0
15.0,1.0,1.0,0.0,0.0,498.0
0.0,1.0,1.0,0.0,0.0,496.0
1.0,1.0,1.0,0.0,0.0,443.0
2.0,1.0,1.0,0.0,0.0,385.0
3.0,1.0,1.0,0.0,0.0,363.0
4.0,1.0,1.0,0.0,0.0,372.0
5.0,1.0,1.0,0.0,0.0,403.0
6.0,1.0,1.0,0.0,0.0,441.0
7.0,1.0,1.0,0.0,0.0,498.0
8.0,1.0,1.0,0.0,0.0,558.0
9.0,1.0,1.0,0.0,0.0,624.0
10.0,1.0,1.0,0.0,0.0,668.0
11.0,1.0,1.0,0.0,0.0,635.0
12.0,1.0,1.0,0.0,0.0,592.0
13.0,1.0,1.0,0.0,0.0,569.0
14.0,1.0,1.0,0.0,0.0,548.0
15.0,1.0,1.0,0.0,0.0,539.0
0.0,1.0,1.0,0.0,0.0,526.0
1.0,1.0,1.0,0.0,0.0,515.0
2.0,1.0,1.0,0.0,0.0,509.0
3.0,1.0,1.0,0.0,0.0,504.0
4.0,1.0,1.0,0.0,0.0,512.0
5.0,1.0,1.0,0.0,0.0,456.0
6.0,1.0,1.0,0.0,0.0,396.0
7.0,1.0,1.0,0.0,0.0,355.0
8.0,1.0,1.0,0.0,0.0,366.0
9.0,1.0,1.0,0.0,0.0,396.0
10.0,1.0,1.0,0.0,0.0,451.0
11.0,1.0,1.0,0.0,0.0,508.0
12.0,1.0,1.0,0.0,0.0,558.0
13.0,1.0,1.0,0.0,0.0,621.0
14.0,1.0,1.0,0.0,0.0,663.0
15.0,1.0,1.0,0.0,0.0,640.0
0.0,1.0,1.0,0.0,0.0,602.0
1.0,1.0,1.0,0.0,0.0,578.0
2.0,1.0,1.0,0.0,0.0,554.0
3.0,1.0,1.0,0.0,0.0,520.0
4.0,1.0,1.0,0.0,0.0,509.0
5.0,1.0,1.0,0.0,0.0,502.0
6.0,1.0,1.0,0.0,0.0,498.0
7.0,1.0,1.0,0.0,0.0,504.0
8.0,1.0,1.0,0.0,0.0,507.0
9.0,1.0,1.0,0.0,0.0,449.0
10.0,1.0,1.0,0.0,0.0,383.0
11.0,1.0,1.0,0.0,0.0,353.0
12.0,1.0,1.0,0.0,0.0,381.0
13.0,1.0,1.0,0.0,0.0,412.0
14.0,1.0,1.0,0.0,0.0,449.0
15.0,1.0,1.0,0.0,0.0,506.0
0.0,1.0,1.0,0.0,0.0,562.0
1.0,1.0,1.0,0.0,0.0,627.0
2.0,1.0,1.0,0.0,0.0,671.0
3.0,1.0,1.0,0.0,0.0,628.0
4.0,1.0,1.0,0.0,0.0,596.0
5.0,1.0,1.0,0.0,0.0,566.0
6.0,1.0,1.0,0.0,0.0,557.0
7.0,1.0,1.0,0.0,0.0,544.0
8.0,1.0,1.0,0.0,0.0,529.0
9.0,1.0,1.0,0.0,0.0,506.0
10.0,1.0,1.0,0.0,0.0,496.0
11.0,1.0,1.0,0.0,0.0,509.0
12.0,1.0,1.0,0.0,0.0,520.0
13.0,1.0,1.0,0.0,0.0,455.0
14.0,1.0,1.0,0.0,0.0,388.0
15.0,1.0,1.0,0.0,0.0,359.0
0.0,1.0,1.0,0.0,0.0,369.0
1.0,1.0,1.0,0.0,0.0,411.0
2.0,1.0,1.0,0.0,0.0,444.0
3.0,1.0,1.0,0.0,0.0,494.0
4.0,1.0,1.0,0.0,0.0,563.0
5.0,1.0,1.0,0.0,0.0,624.0
6.0,1.0,1.0,0.0,0.0,680.0
7.0,1.0,1.0,0.0,0.0,640.0
8.0,1.0,1.0,0.0,0.0,586.0
9.0,1.0,1.0,0.0,0.0,567.0
10.0,1.0,1.0,0.0,0.0,547.0
11.0,1.0,1.0,0.0,0.0,530.0
12.0,1.0,1.0,0.0,0.0,519.0
13.0,1.0,1.0,0.0,0.0,507.0
14.0,1.0,1.0,0.0,0.0,496.0
15.0,1.0,1.0,0.0,0.0,503.0
0.0,1.0,1.0,0.0,0.0,510.0
1.0,1.0,1.0,0.0,0.0,454.0
2.0,1.0,1.0,0.0,0.0,384.0
3.0,1.0,1.0,0.0,0.0,355.0
4.0,1.0,1.0,0.0,0.0,380.0
5.0,1.0,1.0,0.0,0.0,409.0
6.0,1.0,1.0,0.0,0.0,448.0
7.0,1.0,1.0,0.0,0.0,494.0
8.0,1.0,1.0,0.0,0.0,556.0
9.0,1.0,1.0,0.0,0.0,649.0
10.0,1.0,1.0,0.0,0.0,689.0
11.0,1.0,1.0,0.0,0.0,629.0
12.0,1.0,1.0,0.0,0.0,581.0
13.0,1.0,1.0,0.0,0.0,575.0
14.0,1.0,1.0,0.0,0.0,549.0
15.0,1.0,1.0,0.0,0.0,525.0
0.0,1.0,1.0,0.0,0.0,518.0
1.0,1.0,1.0,0.0,0.0,513.0
2.0,1.0,1.0,0.0,0.0,503.0
3.0,1.0,1.0,0.0,0.0,502.0
4.0,1.0,1.0,0.0,0.0,510.0
5.0,1.0,1.0,0.0,0.0,443.0
6.0,1.0,1.0,0.0,0.0,391.0
7.0,1.0,1.0,0.0,0.0,365.0
8.0,1.0,1.0,0.0,0.0,372.0
9.0,1.0,1.0,0.0,0.0,411.0
10.0,1.0,1.0,0.0,0.0,450.0
11.0,1.0,1.0,0.0,0.0,498.0
12.0,1.0,1.0,0.0,0.0,559.0
13.0,1.0,1.0,0.0,0.0,628.0
14.0,1.0,1.0,0.0,0.0,686.0
15.0,1.0,1.0,0.0,0.0,646.0
0.0,1.0,1.0,0.0,0.0,606.0
1.0,1.0,1.0,0.0,0.0,576.0
2.0,1.0,1.0,0.0,0.0,543.0
3.0,1.0,1.0,0.0,0.0,532.0
4.0,1.0,1.0,0.0,0.0,513.0
5.0,1.0,1.0,0.0,0.0,497.0
6.0,1.0,1.0,0.0,0.0,498.0
7.0,1.0,1.0,0.0,0.0,504.0
8.0,1.0,1.0,0.0,0.0,514.0
9.0,1.0,1.0,0.0,0.0,452.0
10.0,1.0,1.0,0.0,0.0,391.0
11.0,1.0,1.0,0.0,0.0,360.0
12.0,1.0,1.0,0.0,0.0,373.0
13.0,1.0,1.0,0.0,0.0,403.0
14.0,1.0,1.0,0.0,0.0,448.0
15.0,1.0,1.0,0.0,0.0,500.0
0.0,1.0,1.0,0.0,0.0,554.0
1.0,1.0,1.0,0.0,0.0,624.0
2.0,1.0,1.0,0.0,0.0,679.0
3.0,1.0,1.0,0.0,0.0,645.0
4.0,1.0,1.0,0.0,0.0,604.0
5.0,1.0,1.0,0.0,0.0,580.0
6.0,1.0,1.0,0.0,0.0,548.0
7.0,1.0,1.0,0.0,0.0,537.0
8.0,1.0,1.0,0.0,0.0,517.0
9.0,1.0,1.0,0.0,0.0,501.0
10.0,1.0,1.0,0.0,0.0,502.0
11.0,1.0,1.0,0.0,0.0,511.0
12.0,1.0,1.0,0.0,0.0,517.0
13.0,1.0,1.0,0.0,0.0,449.0
14.0,1.0,1.0,0.0,0.0,382.0
15.0,1.0,1.0,0.0,0.0,355.0
0.0,1.0,1.0,0.0,0.0,365.0
1.0,1.0,1.0,0.0,0.0,406.0
2.0,1.0,1.0,0.0,0.0,451.0
3.0,1.0,1.0,0.0,0.0,502.0
4.0,1.0,1.0,0.0,0.0,561.0
5.0,1.0,1.0,0.0,0.0,622.0
6.0,1.0,1.0,0.0,0.0,678.0
7.0,1.0,1.0,0.0,0.0,641.0
8.0,1.0,1.0,0.0,0.0,592.0
9.0,1.0,1.0,0.0,0.0,567.0
10.0,1.0,1.0,0.0,0.0,555.0
11.0,1.0,1.0,0.0,0.0,540.0
12.0,1.0,1.0,0.0,0.0,523.0
13.0,1.0,1.0,0.0,0.0,514.0
14.0,1.0,1.0,0.0,0.0,506.0
15.0,1.0,1.0,0.0,0.0,493.0
0.0,1.0,1.0,0.0,0.0,494.0
1.0,1.0,1.0,0.0,0.0,434.0
2.0,1.0,1.0,0.0,0.0,387.0
3.0,1.0,1.0,0.0,0.0,361.0
4.0,1.0,1.0,0.0,0.0,364.0
5.0,1.0,1.0,0.0,0.0,390.0
6.0,1.0,1.0,0.0,0.0,437.0
7.0,1.0,1.0,0.0,0.0,496.0
8.0,1.0,1.0,0.0,0.0,563.0
9.0,1.0,1.0,0.0,0.0,633.0
10.0,1.0,1.0,0.0,0.0,679.0
11.0,1.0,1.0,0.0,0.0,647.0
12.0,1.0,1.0,0.0,0.0,611.0
13.0,1.0,1.0,0.0,0.0,575.0
14.0,1.0,1.0,0.0,0.0,554.0
15.0,1.0,1.0,0.0,0.0,533.0
0.0,1.0,1.0,0.0,0.0,523.0
1.0,1.0,1.0,0.0,0.0,509.0
2.0,1.0,1.0,0.0,0.0,506.0
3.0,1.0,1.0,0.0,0.0,505.0
4.0,1.0,1.0,0.0,0.0,503.0
5.0,1.0,1.0,0.0,0.0,440.0
6.0,1.0,1.0,0.0,0.0,389.0
7.0,1.0,1.0,0.0,0.0,368.0
8.0,1.0,1.0,0.0,0.0,384.0
9.0,1.0,1.0,0.0,0.0,411.0
10.0,1.0,1.0,0.0,0.0,455.0
11.0,1.0,1.0,0.0,0.0,504.0
12.0,1.0,1.0,0.0,0.0,563.0
13.0,1.0,1.0,0.0,0.0,625.0
14.0,1.0,1.0,0.0,0.0,671.0
15.0,1.0,1.0,0.0,0.0,632.0
0.0,1.0,1.0,0.0,0.0,585.0
1.0,1.0,1.0,0.0,0.0,558.0
2.0,1.0,1.0,0.0,0.0,534.0
3.0,1.0,1.0,0.0,0.0,529.0
4.0,1.0,1.0,0.0,0.0,519.0
5.0,1.0,1.0,0.0,0.0,519.0
6.0,1.0,1.0,0.0,0.0,522.0
7.0,1.0,1.0,0.0,0.0,526.0
8.0,1.0,1.0,0.0,0.0,513.0
9.0,1.0,1.0,0.0,0.0,431.0
10.0,1.0,1.0,0.0,0.0,370.0
11.0,1.0,1.0,0.0,0.0,366.0
12.0,1.0,1.0,0.0,0.0,374.0
13.0,1.0,1.0,0.0,0.0,406.0
14.0,1.0,1.0,0.0,0.0,450.0
15.0,1.0,1.0,0.0,0.0,511.0
0.0,1.0,1.0,0.0,0.0,573.0
1.0,1.0,1.0,0.0,0.0,624.0
2.0,1.0,1.0,0.0,0.0,667.0
3.0,1.0,1.0,0.0,0.0,647.0
4.0,1.0,1.0,0.0,0.0,596.0
5.0,1.0,1.0,0.0,0.0,562.0
6.0,1.0,1.0,0.0,0.0,550.0
7.0,1.0,1.0,0.0,0.0,531.0
8.0,1.0,1.0,0.0,0.0,513.0
9.0,1.0,1.0,0.0,0.0,508.0
10.0,1.0,1.0,0.0,0.0,513.0
11.0,1.0,1.0,0.0,0.0,514.0
12.0,1.0,1.0,0.0,0.0,502.0
13.0,1.0,1.0,0.0,0.0,435.0
14.0,1.0,1.0,0.0,0.0,381.0
15.0,1.0,1.0,0.0,0.0,357.0
0.0,1.0,1.0,0.0,0.0,373.0
1.0,1.0,1.0,0.0,0.0,412.0
2.0,1.0,1.0,0.0,0.0,456.0
3.0,1.0,1.0,0.0,0.0,502.0
4.0,1.0,1.0,0.0,0.0,565.0
5.0,1.0,1.0,0.0,0.0,620.0
6.0,1.0,1.0,0.0,0.0,672.0
7.0,1.0,1.0,0.0,0.0,641.0
8.0,1.0,1.0,0.0,0.0,608.0
9.0,1.0,1.0,0.0,0.0,570.0
10.0,1.0,1.0,0.0,0.0,548.0
11.0,1.0,1.0,0.0,0.0,524.0
12.0,1.0,1.0,0.0,0.0,514.0
13.0,1.0,1.0,0.0,0.0,505.0
14.0,1.0,1.0,0.0,0.0,503.0
15.0,1.0,1.0,0.0,0.0,504.0
0.0,1.0,1.0,0.0,0.0,502.0
1.0,1.0,1.0,0.0,0.0,449.0
2.0,1.0,1.0,0.0,0.0,384.0
3.0,1.0,1.0,0.0,0.0,360.0
4.0,1.0,1.0,0.0,0.0,384.0
5.0,1.0,1.0,0.0,0.0,411.0
6.0,1.0,1.0,0.0,0.0,453.0
7.0,1.0,1.0,0.0,0.0,492.0
8.0,1.0,1.0,0.0,0.0,552.0
9.0,1.0,1.0,0.0,0.0,620.0
10.0,1.0,1.0,0.0,0.0,667.0
11.0,1.0,1.0,0.0,0.0,631.0
12.0,1.0,1.0,0.0,0.0,602.0
13.0,1.0,1.0,0.0,0.0,576.0
14.0,1.0,1.0,0.0,0.0,553.0
15.0,1.0,1.0,0.0,0.0,543.0
0.0,1.0,1.0,0.0,0.0,527.0
1.0,1.0,1.0,0.0,0.0,517.0
2.0,1.0,1.0,0.0,0.0,513.0
3.0,1.0,1.0,0.0,0.0,499.0
4.0,1.0,1.0,0.0,0.0,504.0
5.0,1.0,1.0,0.0,0.0,439.0
6.0,1.0,1.0,0.0,0.0,391.0
7.0,1.0,1.0,0.0,0.0,360.0
8.0,1.0,1.0,0.0,0.0,381.0
9.0,1.0,1.0,0.0,0.0,422.0
10.0,1.0,1.0,0.0,0.0,459.0
11.0,1.0,1.0,0.0,0.0,510.0
12.0,1.0,1.0,0.0,0.0,556.0
13.0,1.0,1.0,0.0,0.0,616.0
14.0,1.0,1.0,0.0,0.0,658.0
15.0,1.0,1.0,0.0,0.0,631.0
0.0,1.0,1.0,0.0,0.0,579.0
1.0,1.0,1.0,0.0,0.0,553.0
2.0,1.0,1.0,0.0,0.0,541.0
3.0,1.0,1.0,0.0,0.0,529.0
4.0,1.0,1.0,0.0,0.0,517.0
5.0,1.0,1.0,0.0,0.0,501.0
6.0,1.0,1.0,0.0,0.0,497.0
7.0,1.0,1.0,0.0,0.0,509.0
8.0,1.0,1.0,0.0,0.0,520.0
9.0,1.0,1.0,0.0,0.0,451.0
10.0,1.0,1.0,0.0,0.0,387.0
11.0,1.0,1.0,0.0,0.0,367.0
12.0,1.0,1.0,0.0,0.0,383.0
13.0,1.0,1.0,0.0,0.0,413.0
14.0,1.0,1.0,0.0,0.0,460.0
15.0,1.0,1.0,0.0,0.0,499.0
0.0,1.0,1.0,0.0,0.0,555.0
1.0,1.0,1.0,0.0,0.0,632.0
2.0,1.0,1.0,0.0,0.0,679.0
3.0,1.0,1.0,0.0,0.0,647.0
4.0,1.0,1.0,0.0,0.0,598.0
5.0,1.0,1.0,0.0,0.0,568.0
6.0,1.0,1.0,0.0,0.0,552.0
7.0,1.0,1.0,0.0,0.0,534.0
8.0,1.0,1.0,0.0,0.0,515.0
9.0,1.0,1.0,0.0,0.0,510.0
10.0,1.0,1.0,0.0,0.0,512.0
11.0,1.0,1.0,0.0,0.0,504.0
12.0,1.0,1.0,0.0,0.0,504.0
13.0,1.0,1.0,0.0,0.0,440.0
14.0,1.0,1.0,0.0,0.0,385.0
15.0,1.0,1.0,0.0,0.0,361.0
0.0,1.0,1.0,0.0,0.0,370.0
1.0,1.0,1.0,0.0,0.0,405.0
2.0,1.0,1.0,0.0,0.0,449.0
3.0,1.0,1.0,0.0,0.0,499.0
4.0,1.0,1.0,0.0,0.0,562.0
5.0,1.0,1.0,0.0,0.0,638.0
6.0,1.0,1.0,0.0,0.0,684.0
7.0,1.0,1.0,0.0,0.0,642.0
8.0,1.0,1.0,0.0,0.0,607.0
9.0,1.0,1.0,0.0,0.0,569.0
10.0,1.0,1.0,0.0,0.0,534.0
11.0,1.0,1.0,0.0,0.0,515.0
12.0,1.0,1.0,0.0,0.0,507.0
13.0,1.0,1.0,0.0,0.0,504.0
14.0,1.0,1.0,0.0,0.0,499.0
15.0,1.0,1.0,0.0,0.0,506.0
0.0,1.0,1.0,0.0,0.0,523.0
1.0,1.0,1.0,0.0,0.0,449.0
2.0,1.0,1.0,0.0,0.0,386.0
3.0,1.0,1.0,0.0,0.0,363.0
4.0,1.0,1.0,0.0,0.0,375.0
5.0,1.0,1.0,0.0,0.0,410.0
6.0,1.0,1.0,0.0,0.0,450.0
7.0,1.0,1.0,0.0,0.0,501.0
8.0,1.0,1.0,0.0,0.0,558.0
9.0,1.0,1.0,0.0,0.0,626.0
10.0,1.0,1.0,0.0,0.0,683.0
11.0,1.0,1.0,0.0,0.0,641.0
12.0,1.0,1.0,0.0,0.0,595.0
13.0,1.0,1.0,0.0,0.0,564.0
14.0,1.0,1.0,0.0,0.0,543.0
15.0,1.0,1.0,0.0,0.0,530.0
0.0,1.0,1.0,0.0,0.0,512.0
1.0,1.0,1.0,0.0,0.0,499.0
2.0,1.0,1.0,0.0,0.0,499.0
3.0,1.0,1.0,0.0,0.0,513.0
4.0,1.0,1.0,0.0,0.0,526.0
5.0,1.0,1.0,0.0,0.0,460.0
6.0,1.0,1.0,0.0,0.0,385.0
7.0,1.0,1.0,0.0,0.0,363.0
8.0,1.0,1.0,0.0,0.0,373.0
9.0,1.0,1.0,0.0,0.0,405.0
10.0,1.0,1.0,0.0,0.0,449.0
11.0,1.0,1.0,0.0,0.0,500.0
12.0,1.0,1.0,0.0,0.0,560.0
13.0,1.0,1.0,0.0,0.0,624.0
14.0,1.0,1.0,0.0,0.0,683.0
15.0,1.0,1.0,0.0,0.0,646.0
0.0,1.0,1.0,0.0,0.0,592.0
1.0,1.0,1.0,0.0,0.0,558.0
2.0,1.0,1.0,0.0,0.0,539.0
3.0,1.0,1.0,0.0,0.0,528.0
4.0,1.0,1.0,0.0,0.0,514.0
5.0,1.0,1.0,0.0,0.0,499.0
6.0,1.0,1.0,0.0,0.0,495.0
7.0,1.0,1.0,0.0,0.0,511.0
8.0,1.0,1.0,0.0,0.0,521.0
9.0,1.0,1.0,0.0,0.0,452.0
10.0,1.0,1.0,0.0,0.0,394.0
11.0,1.0,1.0,0.0,0.0,364.0
12.0,1.0,1.0,0.0,0.0,373.0
13.0,1.0,1.0,0.0,0.0,410.0
14.0,1.0,1.0,0.0,0.0,451.0
15.0,1.0,1.0,0.0,0.0,504.0
0.0,1.0,1.0,0.0,0.0,566.0
1.0,1.0,1.0,0.0,0.0,629.0
2.0,1.0,1.0,0.0,0.0,684.0
3.0,1.0,1.0,0.0,0.0,643.0
4.0,1.0,1.0,0.0,0.0,593.0
5.0,1.0,1.0,0.0,0.0,566.0
6.0,1.0,1.0,0.0,0.0,544.0
7.0,1.0,1.0,0.0,0.0,522.0
8.0,1.0,1.0,0.0,0.0,513.0
9.0,1.0,1.0,0.0,0.0,509.0
10.0,1.0,1.0,0.0,0.0,507.0
11.0,1.0,1.0,0.0,0.0,493.0
12.0,1.0,1.0,0.0,0.0,501.0
13.0,1.0,1.0,0.0,0.0,448.0
14.0,1.0,1.0,0.0,0.0,397.0
15.0,1.0,1.0,0.0,0.0,378.0
0.0,1.0,1.0,0.0,0.0,387.0
1.0,1.0,1.0,0.0,0.0,419.0
2.0,1.0,1.0,0.0,0.0,452.0
3.0,1.0,1.0,0.0,0.0,501.0
4.0,1.0,1.0,0.0,0.0,559.0
5.0,1.0,1.0,0.0,0.0,615.0
6.0,1.0,1.0,0.0,0.0,675.0
7.0,1.0,1.0,0.0,0.0,639.0
8.0,1.0,1.0,0.0,0.0,599.0
9.0,1.0,1.0,0.0,0.0,559.0
10.0,1.0,1.0,0.0,0.0,534.0
11.0,1.0,1.0,0.0,0.0,517.0
12.0,1.0,1.0,0.0,0.0,513.0
13.0,1.0,1.0,0.0,0.0,514.0
14.0,1.0,1.0,0.0,0.0,501.0
15.0,1.0,1.0,0.0,0.0,495.0
0.0,1.0,1.0,0.0,0.0,506.0
1.0,1.0,1.0,0.0,0.0,436.0
2.0,1.0,1.0,0.0,0.0,376.0
3.0,1.0,1.0,0.0,0.0,364.0
4.0,1.0,1.0,0.0,0.0,384.0
5.0,1.0,1.0,0.0,0.0,408.0
6.0,1.0,1.0,0.0,0.0,442.0
7.0,1.0,1.0,0.0,0.0,495.0
8.0,1.0,1.0,0.0,0.0,557.0
9.0,1.0,1.0,0.0,0.0,622.0
10.0,1.0,1.0,0.0,0.0,686.0
11.0,1.0,1.0,0.0,0.0,649.0
12.0,1.0,1.0,0.0,0.0,605.0
13.0,1.0,1.0,0.0,0.0,571.0
14.0,1.0,1.0,0.0,0.0,543.0
15.0,1.0,1.0,0.0,0.0,528.0
0.0,1.0,1.0,0.0,0.0,519.0
1.0,1.0,1.0,0.0,0.0,507.0
2.0,1.0,1.0,0.0,0.0,496.0
3.0,1.0,1.0,0.0,0.0,500.0
4.0,1.0,1.0,0.0,0.0,505.0
5.0,1.0,1.0,0.0,0.0,450.0
6.0,1.0,1.0,0.0,0.0,385.0
7.0,1.0,1.0,0.0,0.0,364.0
8.0,1.0,1.0,0.0,0.0,379.0
9.0,1.0,1.0,0.0,0.0,412.0
10.0,1.0,1.0,0.0,0.0,455.0
11.0,1.0,1.0,0.0,0.0,502.0
12.0,1.0,1.0,0.0,0.0,557.0
13.0,1.0,1.0,0.0,0.0,626.0
14.0,1.0,1.0,0.0,0.0,702.0
15.0,1.0,1.0,0.0,0.0,661.0
0.0,1.0,1.0,0.0,0.0,601.0
1.0,1.0,1.0,0.0,0.0,567.0
2.0,1.0,1.0,0.0,0.0,547.0
3.0,1.0,1.0,0.0,0.0,529.0
4.0,1.0,1.0,0.0,0.0,513.0
5.0,1.0,1.0,0.0,0.0,508.0
6.0,1.0,1.0,0.0,0.0,499.0
7.0,1.0,1.0,0.0,0.0,494.0
8.0,1.0,1.0,0.0,0.0,504.0
9.0,1.0,1.0,0.0,0.0,453.0
10.0,1.0,1.0,0.0,0.0,386.0
11.0,1.0,1.0,0.0,0.0,356.0
12.0,1.0,1.0,0.0,0.0,366.0
13.0,1.0,1.0,0.0,0.0,399.0
14.0,1.0,1.0,0.0,0.0,448.0
15.0,1.0,1.0,0.0,0.0,507.0
0.0,1.0,1.0,0.0,0.0,570.0
1.0,1.0,1.0,0.0,0.0,626.0
2.0,1.0,1.0,0.0,0.0,679.0
3.0,1.0,1.0,0.0,0.0,649.0
4.0,1.0,1.0,0.0,0.0,600.0
5.0,1.0,1.0,0.0,0.0,572.0
6.0,1.0,1.0,0.0,0.0,554.0
7.0,1.0,1.0,0.0,0.0,535.0
8.0,1.0,1.0,0.0,0.0,515.0
9.0,1.0,1.0,0.0,0.0,504.0
10.0,1.0,1.0,0.0,0.0,502.0
11.0,1.0,1.0,0.0,0.0,497.0
12.0,1.0,1.0,0.0,0.0,507.0
13.0,1.0,1.0,0.0,0.0,446.0
14.0,1.0,1.0,0.0,0.0,382.0
15.0,1.0,1.0,0.0,0.0,362.0
0.0,1.0,1.0,0.0,0.0,382.0
1.0,1.0,1.0,0.0,0.0,411.0
2.0,1.0,1.0,0.0,0.0,454.0
3.0,1.0,1.0,0.0,0.0,509.0
4.0,1.0,1.0,0.0,0.0,572.0
5.0,1.0,1.0,0.0,0.0,624.0
6.0,1.0,1.0,0.0,0.0,668.0
7.0,1.0,1.0,0.0,0.0,636.0
8.0,1.0,1.0,0.0,0.0,600.0
9.0,1.0,1.0,0.0,0.0,567.0
10.0,1.0,1.0,0.0,0.0,546.0
11.0,1.0,1.0,0.0,0.0,524.0
12.0,1.0,1.0,0.0,0.0,507.0
13.0,1.0,1.0,0.0,0.0,509.0
14.0,1.0,1.0,0.0,0.0,496.0
15.0,1.0,1.0,0.0,0.0,503.0
0.0,1.0,1.0,0.0,0.0,514.0
1.0,1.0,1.0,0.0,0.0,453.0
2.0,1.0,1.0,0.0,0.0,383.0
3.0,1.0,1.0,0.0,0.0,360.0
4.0,1.0,1.0,0.0,0.0,376.0
5.0,1.0,1.0,0.0,0.0,416.0
6.0,1.0,1.0,0.0,0.0,455.0
7.0,1.0,1.0,0.0,0.0,506.0
8.0,1.0,1.0,0.0,0.0,557.0
9.0,1.0,1.0,0.0,0.0,626.0
10.0,1.0,1.0,0.0,0.0,668.0
11.0,1.0,1.0,0.0,0.0,639.0
12.0,1.0,1.0,0.0,0.0,595.0
13.0,1.0,1.0,0.0,0.0,561.0
14.0,1.0,1.0,0.0,0.0,549.0
15.0,1.0,1.0,0.0,0.0,545.0
0.0,1.0,1.0,0.0,0.0,521.0
1.0,1.0,1.0,0.0,0.0,514.0
2.0,1.0,1.0,0.0,0.0,514.0
3.0,1.0,1.0,0.0,0.0,505.0
4.0,1.0,1.0,0.0,0.0,498.0
5.0,1.0,1.0,0.0,0.0,443.0
6.0,1.0,1.0,0.0,0.0,388.0
7.0,1.0,1.0,0.0,0.0,368.0
8.0,1.0,1.0,0.0,0.0,371.0
9.0,1.0,1.0,0.0,0.0,402.0
10.0,1.0,1.0,0.0,0.0,443.0
11.0,1.0,1.0,0.0,0.0,493.0
12.0,1.0,1.0,0.0,0.0,552.0
13.0,1.0,1.0,0.0,0.0,621.0
14.0,1.0,1.0,0.0,0.0,675.0
15.0,1.0,1.0,0.0,0.0,649.0
0.0,1.0,1.0,0.0,0.0,601.0
1.0,1.0,1.0,0.0,0.0,568.0
2.0,1.0,1.0,0.0,0.0,551.0
3.0,1.0,1.0,0.0,0.0,526.0
4.0,1.0,1.0,0.0,0.0,514.0
5.0,1.0,1.0,0.0,0.0,508.0
6.0,1.0,1.0,0.0,0.0,508.0
7.0,1.0,1.0,0.0,0.0,505.0
8.0,1.0,1.0,0.0,0.0,502.0
9.0,1.0,1.0,0.0,0.0,443.0
10.0,1.0,1.0,0.0,0.0,389.0
11.0,1.0,1.0,0.0,0.0,361.0
12.0,1.0,1.0,0.0,0.0,373.0
13.0,1.0,1.0,0.0,0.0,403.0
14.0,1.0,1.0,0.0,0.0,444.0
15.0,1.0,1.0,0.0,0.0,504.0
0.0,1.0,1.0,0.0,0.0,575.0
1.0,1.0,1.0,0.0,0.0,639.0
2.0,1.0,1.0,0.0,0.0,677.0
3.0,1.0,1.0,0.0,0.0,646.0
4.0,1.0,1.0,0.0,0.0,603.0
5.0,1.0,1.0,0.0,0.0,564.0
6.0,1.0,1.0,0.0,0.0,532.0
7.0,1.0,1.0,0.0,0.0,522.0
8.0,1.0,1.0,0.0,0.0,517.0
9.0,1.0,1.0,0.0,0.0,508.0
10.0,1.0,1.0,0.0,0.0,489.0
11.0,1.0,1.0,0.0,0.0,495.0
12.0,1.0,1.0,0.0,0.0,500.0
13.0,1.0,1.0,0.0,0.0,444.0
14.0,1.0,1.0,0.0,0.0,384.0
15.0,1.0,1.0,0.0,0.0,371.0
0.0,1.0,1.0,0.0,0.0,387.0
1.0,1.0,1.0,0.0,0.0,411.0
2.0,1.0,1.0,0.0,0.0,450.0
3.0,1.0,1.0,0.0,0.0,510.0
4.0,1.0,1.0,0.0,0.0,569.0
5.0,1.0,1.0,0.0,0.0,635.0
6.0,1.0,1.0,0.0,0.0,678.0
7.0,1.0,1.0,0.0,0.0,647.0
8.0,1.0,1.0,0.0,0.0,598.0
9.0,1.0,1.0,0.0,0.0,568.0
10.0,1.0,1.0,0.0,0.0,547.0
11.0,1.0,1.0,0.0,0.0,532.0
12.0,1.0,1.0,0.0,0.0,512.0
13.0,1.0,1.0,0.0,0.0,492.0
14.0,1.0,1.0,0.0,0.0,502.0
15.0,1.0,1.0,0.0,0.0,499.0
0.0,1.0,1.0,0.0,0.0,505.0
1.0,1.0,1.0,0.0,0.0,448.0
2.0,1.0,1.0,0.0,0.0,393.0
3.0,1.0,1.0,0.0,0.0,375.0
4.0,1.0,1.0,0.0,0.0,390.0
5.0,1.0,1.0,0.0,0.0,416.0
6.0,1.0,1.0,0.0,0.0,457.0
7.0,1.0,1.0,0.0,0.0,509.0
8.0,1.0,1.0,0.0,0.0,561.0
9.0,1.0,1.0,0.0,0.0,627.0
10.0,1.0,1.0,0.0,0.0,668.0
11.0,1.0,1.0,0.0,0.0,639.0
12.0,1.0,1.0,0.0,0.0,599.0
13.0,1.0,1.0,0.0,0.0,564.0
14.0,1.0,1.0,0.0,0.0,540.0
15.0,1.0,1.0,0.0,0.0,525.0
0.0,1.0,1.0,0.0,0.0,515.0
1.0,1.0,1.0,0.0,0.0,506.0
2.0,1.0,1.0,0.0,0.0,502.0
3.0,1.0,1.0,0.0,0.0,501.0
4.0,1.0,1.0,0.0,0.0,506.0
5.0,1.0,1.0,0.0,0.0,450.0
6.0,1.0,1.0,0.0,0.0,393.0
7.0,1.0,1.0,0.0,0.0,370.0
8.0,1.0,1.0,0.0,0.0,375.0
9.0,1.0,1.0,0.0,0.0,404.0
10.0,1.0,1.0,0.0,0.0,450.0
11.0,1.0,1.0,0.0,0.0,508.0
12.0,1.0,1.0,0.0,0.0,557.0
13.0,1.0,1.0,0.0,0.0,618.0
14.0,1.0,1.0,0.0,0.0,679.0
15.0,1.0,1.0,0.0,0.0,647.0
0.0,1.0,1.0,0.0,0.0,596.0
1.0,1.0,1.0,0.0,0.0,570.0
2.0,1.0,1.0,0.0,0.0,547.0
3.0,1.0,1.0,0.0,0.0,534.0
4.0,1.0,1.0,0.0,0.0,510.0
5.0,1.0,1.0,0.0,0.0,496.0
6.0,1.0,1.0,0.0,0.0,493.0
7.0,1.0,1.0,0.0,0.0,508.0
8.0,1.0,1.0,0.0,0.0,510.0
9.0,1.0,1.0,0.0,0.0,448.0
10.0,1.0,1.0,0.0,0.0,377.0
11.0,1.0,1.0,0.0,0.0,353.0
12.0,1.0,1.0,0.0,0.0,380.0
13.0,1.0,1.0,0.0,0.0,413.0
14.0,1.0,1.0,0.0,0.0,462.0
15.0,1.0,1.0,0.0,0.0,513.0
0.0,1.0,1.0,0.0,0.0,563.0
1.0,1.0,1.0,0.0,0.0,636.0
2.0,1.0,1.0,0.0,0.0,686.0
3.0,1.0,1.0,0.0,0.0,648.0
4.0,1.0,1.0,0.0,0.0,606.0
5.0,1.0,1.0,0.0,0.0,574.0
6.0,1.0,1.0,0.0,0.0,540.0
7.0,1.0,1.0,0.0,0.0,528.0
8.0,1.0,1.0,0.0,0.0,504.0
9.0,1.0,1.0,0.0,0.0,497.0
10.0,1.0,1.0,0.0,0.0,495.0
11.0,1.0,1.0,0.0,0.0,497.0
12.0,1.0,1.0,0.0,0.0,510.0
13.0,1.0,1.0,0.0,0.0,447.0
14.0,1.0,1.0,0.0,0.0,384.0
15.0,1.0,1.0,0.0,0.0,358.0
0.0,1.0,1.0,0.0,0.0,377.0
1.0,1.0,1.0,0.0,0.0,408.0
2.0,1.0,1.0,0.0,0.0,445.0
3.0,1.0,1.0,0.0,0.0,492.0
4.0,1.0,1.0,0.0,0.0,554.0
5.0,1.0,1.0,0.0,0.0,628.0
6.0,1.0,1.0,0.0,0.0,685.0
7.0,1.0,1.0,0.0,0.0,648.0
8.0,1.0,1.0,0.0,0.0,598.0
9.0,1.0,1.0,0.0,0.0,564.0
10.0,1.0,1.0,0.0,0.0,545.0
11.0,1.0,1.0,0.0,0.0,531.0
12.0,1.0,1.0,0.0,0.0,520.0
13.0,1.0,1.0,0.0,0.0,503.0
14.0,1.0,1.0,0.0,0.0,494.0
15.0,1.0,1.0,0.0,0.0,501.0
0.0,1.0,1.0,0.0,0.0,516.0
1.0,1.0,1.0,0.0,0.0,461.0
2.0,1.0,1.0,0.0,0.0,391.0
3.0,1.0,1.0,0.0,0.0,367.0
4.0,1.0,1.0,0.0,0.0,378.0
5.0,1.0,1.0,0.0,0.0,406.0
6.0,1.0,1.0,0.0,0.0,447.0
7.0,1.0,1.0,0.0,0.0,498.0
8.0,1.0,1.0,0.0,0.0,562.0
9.0,1.0,1.0,0.0,0.0,621.0
10.0,1.0,1.0,0.0,0.0,673.0
11.0,1.0,1.0,0.0,0.0,640.0
12.0,1.0,1.0,0.0,0.0,595.0
13.0,1.0,1.0,0.0,0.0,563.0
14.0,1.0,1.0,0.0,0.0,549.0
15.0,1.0,1.0,0.0,0.0,539.0
0.0,1.0,1.0,0.0,0.0,526.0
1.0,1.0,1.0,0.0,0.0,509.0
2.0,1.0,1.0,0.0,0.0,498.0
3.0,1.0,1.0,0.0,0.0,499.0
4.0,1.0,1.0,0.0,0.0,508.0
5.0,1.0,1.0,0.0,0.0,446.0
6.0,1.0,1.0,0.0,0.0,384.0
7.0,1.0,1.0,0.0,0.0,365.0
8.0,1.0,1.0,0.0,0.0,372.0
9.0,1.0,1.0,0.0,0.0,410.0
10.0,1.0,1.0,0.0,0.0,453.0
11.0,1.0,1.0,0.0,0.0,507.0
12.0,1.0,1.0,0.0,0.0,567.0
13.0,1.0,1.0,0.0,0.0,621.0
14.0,1.0,1.0,0.0,0.0,679.0
15.0,1.0,1.0,0.0,0.0,645.0
0.0,1.0,1.0,0.0,0.0,600.0
1.0,1.0,1.0,0.0,0.0,570.0
2.0,1.0,1.0,0.0,0.0,547.0
3.0,1.0,1.0,0.0,0.0,535.0
4.0,1.0,1.0,0.0,0.0,519.0
5.0,1.0,1.0,0.0,0.0,502.0
6.0,1.0,1.0,0.0,0.0,495.0
7.0,1.0,1.0,0.0,0.0,497.0
8.0,1.0,1.0,0.0,0.0,503.0
9.0,1.0,1.0,0.0,0.0,456.0
10.0,1.0,1.0,0.0,0.0,393.0
11.0,1.0,1.0,0.0,0.0,356.0
12.0,1.0,1.0,0.0,0.0,375.0
13.0,1.0,1.0,0.0,0.0,400.0
14.0,1.0,1.0,0.0,0.0,451.0
15.0,1.0,1.0,0.0,0.0,499.0
0.0,1.0,1.0,0.0,0.0,561.0
1.0,1.0,1.0,0.0,0.0,637.0
2.0,1.0,1.0,0.0,0.0,679.0
3.0,1.0,1.0,0.0,0.0,652.0
4.0,1.0,1.0,0.0,0.0,601.0
5.0,1.0,1.0,0.0,0.0,562.0
6.0,1.0,1.0,0.0,0.0,537.0
7.0,1.0,1.0,0.0,0.0,516.0
8.0,1.0,1.0,0.0,0.0,506.0
9.0,1.0,1.0,0.0,0.0,494.0
10.0,1.0,1.0,0.0,0.0,496.0
11.0,1.0,1.0,0.0,0.0,497.0
12.0,1.0,1.0,0.0,0.0,516.0
13.0,1.0,1.0,0.0,0.0,472.0
14.0,1.0,1.0,0.0,0.0,406.0
15.0,1.0,1.0,0.0,0.0,375.0
0.0,1.0,1.0,0.0,0.0,371.0
1.0,1.0,1.0,0.0,0.0,401.0
2.0,1.0,1.0,0.0,0.0,448.0
3.0,1.0,1.0,0.0,0.0,503.0
4.0,1.0,1.0,0.0,0.0,555.0
5.0,1.0,1.0,0.0,0.0,621.0
6.0,1.0,1.0,0.0,0.0,677.0
7.0,1.0,1.0,0.0,0.0,645.0
8.0,1.0,1.0,0.0,0.0,599.0
9.0,1.0,1.0,0.0,0.0,568.0
10.0,1.0,1.0,0.0,0.0,547.0
11.0,1.0,1.0,0.0,0.0,529.0
12.0,1.0,1.0,0.0,0.0,515.0
13.0,1.0,1.0,0.0,0.0,509.0
14.0,1.0,1.0,0.0,0.0,503.0
15.0,1.0,1.0,0.0,0.0,504.0
0.0,1.0,1.0,0.0,0.0,512.0
1.0,1.0,1.0,0.0,0.0,445.0
2.0,1.0,1.0,0.0,0.0,379.0
3.0,1.0,1.0,0.0,0.0,366.0
4.0,1.0,1.0,0.0,0.0,383.0
5.0,1.0,1.0,0.0,0.0,412.0
6.0,1.0,1.0,0.0,0.0,442.0
7.0,1.0,1.0,0.0,0.0,496.0
8.0,1.0,1.0,0.0,0.0,557.0
9.0,1.0,1.0,0.0,0.0,623.0
10.0,1.0,1.0,0.0,0.0,676.0
11.0,1.0,1.0,0.0,0.0,639.0
12.0,1.0,1.0,0.0,0.0,595.0
13.0,1.0,1.0,0.0,0.0,570.0
14.0,1.0,1.0,0.0,0.0,549.0
15.0,1.0,1.0,0.0,0.0,520.0
0.0,1.0,1.0,0.0,0.0,510.0
1.0,1.0,1.0,0.0,0.0,514.0
2.0,1.0,1.0,0.0,0.0,511.0
3.0,1.0,1.0,0.0,0.0,512.0
4.0,1.0,1.0,0.0,0.0,522.0
5.0,1.0,1.0,0.0,0.0,459.0
6.0,1.0,1.0,0.0,0.0,399.0
7.0,1.0,1.0,0.0,0.0,364.0
8.0,1.0,1.0,0.0,0.0,362.0
9.0,1.0,1.0,0.0,0.0,399.0
10.0,1.0,1.0,0.0,0.0,442.0
11.0,1.0,1.0,0.0,0.0,487.0
12.0,1.0,1.0,0.0,0.0,547.0
13.0,1.0,1.0,0.0,0.0,623.0
14.0,1.0,1.0,0.0,0.0,676.0
15.0,1.0,1.0,0.0,0.0,646.0
0.0,1.0,1.0,0.0,0.0,606.0
1.0,1.0,1.0,0.0,0.0,571.0
2.0,1.0,1.0,0.0,0.0,549.0
3.0,1.0,1.0,0.0,0.0,536.0
4.0,1.0,1.0,0.0,0.0,529.0
5.0,1.0,1.0,0.0,0.0,520.0
6.0,1.0,1.0,0.0,0.0,503.0
7.0,1.0,1.0,0.0,0.0,497.0
8.0,1.0,1.0,0.0,0.0,497.0
9.0,1.0,1.0,0.0,0.0,440.0
10.0,1.0,1.0,0.0,0.0,391.0
11.0,1.0,1.0,0.0,0.0,379.0
12.0,1.0,1.0,0.0,0.0,376.0
13.0,1.0,1.0,0.0,0.0,413.0
14.0,1.0,1.0,0.0,0.0,458.0
15.0,1.0,1.0,0.0,0.0,508.0
0.0,1.0,1.0,0.0,0.0,567.0
1.0,1.0,1.0,0.0,0.0,625.0
2.0,1.0,1.0,0.0,0.0,662.0
3.0,1.0,1.0,0.0,0.0,633.0
4.0,1.0,1.0,0.0,0.0,599.0
5.0,1.0,1.0,0.0,0.0,568.0
6.0,1.0,1.0,0.0,0.0,545.0
7.0,1.0,1.0,0.0,0.0,530.0
8.0,1.0,1.0,0.0,0.0,516.0
9.0,1.0,1.0,0.0,0.0,513.0
10.0,1.0,1.0,0.0,0.0,506.0
11.0,1.0,1.0,0.0,0.0,499.0
12.0,1.0,1.0,0.0,0.0,496.0
13.0,1.0,1.0,0.0,0.0,449.0
14.0,1.0,1.0,0.0,0.0,391.0
15.0,1.0,1.0,0.0,0.0,365.0
0.0,1.0,1.0,0.0,0.0,377.0
1.0,1.0,1.0,0.0,0.0,408.0
2.0,1.0,1.0,0.0,0.0,448.0
3.0,1.0,1.0,0.0,0.0,493.0
4.0,1.0,1.0,0.0,0.0,553.0
5.0,1.0,1.0,0.0,0.0,621.0
6.0,1.0,1.0,0.0,0.0,667.0
7.0,1.0,1.0,0.0,0.0,653.0
8.0,1.0,1.0,0.0,0.0,606.0
9.0,1.0,1.0,0.0,0.0,560.0
10.0,1.0,1.0,0.0,0.0,535.0
11.0,1.0,1.0,0.0,0.0,526.0
12.0,1.0,1.0,0.0,0.0,524.0
13.0,1.0,1.0,0.0,0.0,517.0
14.0,1.0,1.0,0.0,0.0,504.0
15.0,1.0,1.0,0.0,0.0,510.0
0.0,1.0,1.0,0.0,0.0,512.0
1.0,1.0,1.0,0.0,0.0,456.0
2.0,1.0,1.0,0.0,0.0,400.0
3.0,1.0,1.0,0.0,0.0,370.0
4.0,1.0,1.0,0.0,0.0,369.0
5.0,1.0,1.0,0.0,0.0,399.0
6.0,1.0,1.0,0.0,0.0,452.0
7.0,1.0,1.0,0.0,0.0,500.0
8.0,1.0,1.0,0.0,0.0,547.0
9.0,1.0,1.0,0.0,0.0,609.0
10.0,1.0,1.0,0.0,0.0,670.0
11.0,1.0,1.0,0.0,0.0,639.0
12.0,1.0,1.0,0.0,0.0,593.0
13.0,1.0,1.0,0.0,0.0,568.0
14.0,1.0,1.0,0.0,0.0,547.0
15.0,1.0,1.0,0.0,0.0,529.0
0.0,1.0,1.0,0.0,0.0,516.0
1.0,1.0,1.0,0.0,0.0,510.0
2.0,1.0,1.0,0.0,0.0,504.0
3.0,1.0,1.0,0.0,0.0,506.0
4.0,1.0,1.0,0.0,0.0,508.0
5.0,1.0,1.0,0.0,0.0,454.0
6.0,1.0,1.0,0.0,0.0,390.0
7.0,1.0,1.0,0.0,0.0,364.0
8.0,1.0,1.0,0.0,0.0,375.0
9.0,1.0,1.0,0.0,0.0,411.0
10.0,1.0,1.0,0.0,0.0,449.0
11.0,1.0,1.0,0.0,0.0,497.0
12.0,1.0,1.0,0.0,0.0,560.0
13.0,1.0,1.0,0.0,0.0,625.0
14.0,1.0,1.0,0.0,0.0,677.0
15.0,1.0,1.0,0.0,0.0,641.0
0.0,1.0,1.0,0.0,0.0,595.0
1.0,1.0,1.0,0.0,0.0,565.0
2.0,1.0,1.0,0.0,0.0,543.0
3.0,1.0,1.0,0.0,0.0,527.0
4.0,1.0,1.0,0.0,0.0,514.0
5.0,1.0,1.0,0.0,0.0,515.0
6.0,1.0,1.0,0.0,0.0,501.0
7.0,1.0,1.0,0.0,0.0,513.0
8.0,1.0,1.0,0.0,0.0,533.0
9.0,1.0,1.0,0.0,0.0,463.0
10.0,1.0,1.0,0.0,0.0,392.0
11.0,1.0,1.0,0.0,0.0,365.0
12.0,1.0,1.0,0.0,0.0,373.0
13.0,1.0,1.0,0.0,0.0,403.0
14.0,1.0,1.0,0.0,0.0,445.0
15.0,1.0,1.0,0.0,0.0,497.0
0.0,1.0,1.0,0.0,0.0,556.0
1.0,1.0,1.0,0.0,0.0,611.0
2.0,1.0,1.0,0.0,0.0,671.0
3.0,1.0,1.0,0.0,0.0,643.0
4.0,1.0,1.0,0.0,0.0,596.0
5.0,1.0,1.0,0.0,0.0,565.0
6.0,1.0,1.0,0.0,0.0,552.0
7.0,1.0,1.0,0.0,0.0,536.0
8.0,1.0,1.0,0.0,0.0,518.0
9.0,1.0,1.0,0.0,0.0,512.0
10.0,1.0,1.0,0.0,0.0,507.0
11.0,1.0,1.0,0.0,0.0,511.0
12.0,1.0,1.0,0.0,0.0,512.0
13.0,1.0,1.0,0.0,0.0,449.0
14.0,1.0,1.0,0.0,0.0,394.0
15.0,1.0,1.0,0.0,0.0,373.0
0.0,1.0,1.0,0.0,0.0,366.0
1.0,1.0,1.0,0.0,0.0,401.0
2.0,1.0,1.0,0.0,0.0,450.0
3.0,1.0,1.0,0.0,0.0,506.0
4.0,1.0,1.0,0.0,0.0,555.0
5.0,1.0,1.0,0.0,0.0,616.0
6.0,1.0,1.0,0.0,0.0,666.0
7.0,1.0,1.0,0.0,0.0,640.0
8.0,1.0,1.0,0.0,0.0,600.0
9.0,1.0,1.0,0.0,0.0,575.0
10.0,1.0,1.0,0.0,0.0,560.0
11.0,1.0,1.0,0.0,0.0,535.0
12.0,1.0,1.0,0.0,0.0,517.0
13.0,1.0,1.0,0.0,0.0,503.0
14.0,1.0,1.0,0.0,0.0,492.0
15.0,1.0,1.0,0.0,0.0,492.0
0.0,1.0,1.0,0.0,0.0,500.0
1.0,1.0,1.0,0.0,0.0,453.0
2.0,1.0,1.0,0.0,0.0,398.0
3.0,1.0,1.0,0.0,0.0,371.0
4.0,1.0,1.0,0.0,0.0,375.0
5.0,1.0,1.0,0.0,0.0,403.0
6.0,1.0,1.0,0.0,0.0,447.0
7.0,1.0,1.0,0.0,0.0,505.0
8.0,1.0,1.0,0.0,0.0,561.0
9.0,1.0,1.0,0.0,0.0,618.0
10.0,1.0,1.0,0.0,0.0,670.0
11.0,1.0,1.0,0.0,0.0,647.0
12.0,1.0,1.0,0.0,0.0,600.0
13.0,1.0,1.0,0.0,0.0,564.0
14.0,1.0,1.0,0.0,0.0,545.0
15.0,1.0,1.0,0.0,0.0,528.0
0.0,1.0,1.0,0.0,0.0,512.0
1.0,1.0,1.0,0.0,0.0,511.0
2.0,1.0,1.0,0.0,0.0,506.0
3.0,1.0,1.0,0.0,0.0,503.0
4.0,1.0,1.0,0.0,0.0,500.0
5.0,1.0,1.0,0.0,0.0,439.0
6.0,1.0,1.0,0.0,0.0,374.0
7.0,1.0,1.0,0.0,0.0,360.0
8.0,1.0,1.0,0.0,0.0,381.0
9.0,1.0,1.0,0.0,0.0,401.0
10.0,1.0,1.0,0.0,0.0,453.0
11.0,1.0,1.0,0.0,0.0,510.0
12.0,1.0,1.0,0.0,0.0,562.0
13.0,1.0,1.0,0.0,0.0,622.0
14.0,1.0,1.0,0.0,0.0,675.0
15.0,1.0,1.0,0.0,0.0,649.0
0.0,1.0,1.0,0.0,0.0,597.0
1.0,1.0,1.0,0.0,0.0,561.0
2.0,1.0,1.0,0.0,0.0,540.0
3.0,1.0,1.0,0.0,0.0,526.0
4.0,1.0,1.0,0.0,0.0,516.0
5.0,1.0,1.0,0.0,0.0,507.0
6.0,1.0,1.0,0.0,0.0,506.0
7.0,1.0,1.0,0.0,0.0,502.0
8.0,1.0,1.0,0.0,0.0,508.0
9.0,1.0,1.0,0.0,0.0,458.0
10.0,1.0,1.0,0.0,0.0,400.0
11.0,1.0,1.0,0.0,0.0,378.0
12.0,1.0,1.0,0.0,0.0,379.0
13.0,1.0,1.0,0.0,0.0,411.0
14.0,1.0,1.0,0.0,0.0,451.0
15.0,1.0,1.0,0.0,0.0,494.0
0.0,1.0,1.0,0.0,0.0,553.0
1.0,1.0,1.0,0.0,0.0,617.0
2.0,1.0,1.0,0.0,0.0,677.0
3.0,1.0,1.0,0.0,0.0,647.0
4.0,1.0,1.0,0.0,0.0,601.0
5.0,1.0,1.0,0.0,0.0,572.0
6.0,1.0,1.0,0.0,0.0,544.0
7.0,1.0,1.0,0.0,0.0,531.0
8.0,1.0,1.0,0.0,0.0,518.0
9.0,1.0,1.0,0.0,0.0,505.0
10.0,1.0,1.0,0.0,0.0,501.0
11.0,1.0,1.0,0.0,0.0,508.0
12.0,1.0,1.0,0.0,0.0,523.0
13.0,1.0,1.0,0.0,0.0,461.0
14.0,1.0,1.0,0.0,0.0,395.0
15.0,1.0,1.0,0.0,0.0,377.0
0.0,1.0,1.0,0.0,0.0,386.0
1.0,1.0,1.0,0.0,0.0,401.0
2.0,1.0,1.0,0.0,0.0,438.0
3.0,1.0,1.0,0.0,0.0,495.0
4.0,1.0,1.0,0.0,0.0,551.0
5.0,1.0,1.0,0.0,0.0,620.0
6.0,1.0,1.0,0.0,0.0,673.0
7.0,1.0,1.0,0.0,0.0,642.0
8.0,1.0,1.0,0.0,0.0,595.0
9.0,1.0,1.0,0.0,0.0,565.0
10.0,1.0,1.0,0.0,0.0,546.0
11.0,1.0,1.0,0.0,0.0,537.0
12.0,1.0,1.0,0.0,0.0,513.0
13.0,1.0,1.0,0.0,0.0,509.0
14.0,1.0,1.0,0.0,0.0,513.0
15.0,1.0,1.0,0.0,0.0,511.0
0.0,1.0,1.0,0.0,0.0,516.0
1.0,1.0,1.0,0.0,0.0,460.0
2.0,1.0,1.0,0.0,0.0,388.0
3.0,1.0,1.0,0.0,0.0,359.0
4.0,1.0,1.0,0.0,0.0,385.0
5.0,1.0,1.0,0.0,0.0,409.0
6.0,1.0,1.0,0.0,0.0,449.0
7.0,1.0,1.0,0.0,0.0,506.0
8.0,1.0,1.0,0.0,0.0,562.0
9.0,1.0,1.0,0.0,0.0,627.0
10.0,1.0,1.0,0.0,0.0,670.0
11.0,1.0,1.0,0.0,0.0,649.0
12.0,1.0,1.0,0.0,0.0,597.0
13.0,1.0,1.0,0.0,0.0,560.0
14.0,1.0,1.0,0.0,0.0,539.0
15.0,1.0,1.0,0.0,0.0,529.0
0.0,1.0,1.0,0.0,0.0,512.0
1.0,1.0,1.0,0.0,0.0,503.0
2.0,1.0,1.0,0.0,0.0,495.0
3.0,1.0,1.0,0.0,0.0,489.0
4.0,1.0,1.0,0.0,0.0,503.0
5.0,1.0,1.0,0.0,0.0,448.0
6.0,1.0,1.0,0.0,0.0,391.0
7.0,1.0,1.0,0.0,0.0,363.0
8.0,1.0,1.0,0.0,0.0,367.0
9.0,1.0,1.0,0.0,0.0,395.0
10.0,1.0,1.0,0.0,0.0,440.0
11.0,1.0,1.0,0.0,0.0,495.0
12.0,1.0,1.0,0.0,0.0,560.0
13.0,1.0,1.0,0.0,0.0,627.0
14.0,1.0,1.0,0.0,0.0,679.0
15.0,1.0,1.0,0.0,0.0,652.0
0.0,1.0,1.0,0.0,0.0,604.0
1.0,1.0,1.0,0.0,0.0,572.0
2.0,1.0,1.0,0.0,0.0,551.0
3.0,1.0,1.0,0.0,0.0,530.0
4.0,1.0,1.0,0.0,0.0,513.0
5.0,1.0,1.0,0.0,0.0,506.0
6.0,1.0,1.0,0.0,0.0,502.0
7.0,1.0,1.0,0.0,0.0,493.0
8.0,1.0,1.0,0.0,0.0,500.0
9.0,1.0,1.0,0.0,0.0,453.0
10.0,1.0,1.0,0.0,0.0,391.0
11.0,1.0,1.0,0.0,0.0,376.0
12.0,1.0,1.0,0.0,0.0,374.0
13.0,1.0,1.0,0.0,0.0,409.0
14.0,1.0,1.0,0.0,0.0,459.0
15.0,1.0,1.0,0.0,0.0,504.0
0.0,1.0,1.0,0.0,0.0,551.0
1.0,1.0,1.0,0.0,0.0,613.0
2.0,1.0,1.0,0.0,0.0,674.0
3.0,1.0,1.0,0.0,0.0,645.0
4.0,1.0,1.0,0.0,0.0,591.0
5.0,1.0,1.0,0.0,0.0,566.0
6.0,1.0,1.0,0.0,0.0,544.0
7.0,1.0,1.0,0.0,0.0,537.0
8.0,1.0,1.0,0.0,0.0,532.0
9.0,1.0,1.0,0.0,0.0,521.0
10.0,1.0,1.0,0.0,0.0,512.0
11.0,1.0,1.0,0.0,0.0,510.0
12.0,1.0,1.0,0.0,0.0,513.0
13.0,1.0,1.0,0.0,0.0,453.0
14.0,1.0,1.0,0.0,0.0,387.0
15.0,1.0,1.0,0.0,0.0,369.0
0.0,1.0,1.0,0.0,0.0,379.0
1.0,1.0,1.0,0.0,0.0,408.0
2.0,1.0,1.0,0.0,0.0,442.0
3.0,1.0,1.0,0.0,0.0,491.0
4.0,1.0,1.0,0.0,0.0,566.0
5.0,1.0,1.0,0.0,0.0,624.0
6.0,1.0,1.0,0.0,0.0,676.0
7.0,1.0,1.0,0.0,0.0,654.0
8.0,1.0,1.0,0.0,0.0,601.0
9.0,1.0,1.0,0.0,0.0,568.0
10.0,1.0,1.0,0.0,0.0,541.0
11.0,1.0,1.0,0.0,0.0,530.0
12.0,1.0,1.0,0.0,0.0,513.0
13.0,1.0,1.0,0.0,0.0,507.0
14.0,1.0,1.0,0.0,0.0,509.0
15.0,1.0,1.0,0.0,0.0,504.0
0.0,1.0,1.0,0.0,0.0,508.0
1.0,1.0,1.0,0.0,0.0,449.0
2.0,1.0,1.0,0.0,0.0,391.0
3.0,1.0,1.0,0.0,0.0,364.0
4.0,1.0,1.0,0.0,0.0,377.0
5.0,1.0,1.0,0.0,0.0,401.0
6.0,1.0,1.0,0.0,0.0,440.0
7.0,1.0,1.0,0.0,0.0,487.0
8.0,1.0,1.0,0.0,0.0,552.0
9.0,1.0,1.0,0.0,0.0,612.0
10.0,1.0,1.0,0.0,0.0,668.0
11.0,1.0,1.0,0.0,0.0,647.0
12.0,1.0,1.0,0.0,0.0,603.0
13.0,1.0,1.0,0.0,0.0,578.0
14.0,1.0,1.0,0.0,0.0,549.0
15.0,1.0,1.0,0.0,0.0,531.0
0.0,1.0,1.0,0.0,0.0,510.0
1.0,1.0,1.0,0.0,0.0,508.0
2.0,1.0,1.0,0.0,0.0,507.0
3.0,1.0,1.0,0.0,0.0,513.0
4.0,1.0,1.0,0.0,0.0,515.0
5.0,1.0,1.0,0.0,0.0,462.0
6.0,1.0,1.0,0.0,0.0,399.0
7.0,1.0,1.0,0.0,0.0,371.0
8.0,1.0,1.0,0.0,0.0,379.0
9.0,1.0,1.0,0.0,0.0,407.0
10.0,1.0,1.0,0.0,0.0,449.0
11.0,1.0,1.0,0.0,0.0,495.0
12.0,1.0,1.0,0.0,0.0,552.0
13.0,1.0,1.0,0.0,0.0,611.0
14.0,1.0,1.0,0.0,0.0,671.0
